# Macroscopic dielectric function obtained with the BS equation.
#  RPA L0 with KS energies and KS wavefunctions     LOCAL FIELD EFFECTS INCLUDED
# RESONANT-ONLY calculation
# Coulomb term constructed with full W(G1,G2)
# Scissor operator energy =  0.8000 [eV]
# Tolerance =  0.0500 0.0000
# npweps  = 59
# npwwfn  = 283
# nbands  = 6
# loband  = 2
# nkibz   = 64
# nkbz    = 64
# Lorentzian broadening =  0.1000 [eV]
# List of q-points for the optical limit:
# q =  0.938821, 0.000000, 0.000000, [Reduced coords] 
# q =  0.000000, 0.938821, 0.000000, [Reduced coords] 
# q =  0.000000, 0.000000, 0.938821, [Reduced coords] 
# q =  0.000000, 0.813043, 0.813043, [Reduced coords] 
# q =  0.813043, 0.000000, 0.813043, [Reduced coords] 
# q =  0.813043, 0.813043, 0.000000, [Reduced coords] 
# omega [eV]    RE(eps(q=1)) IM(eps(q=1) RE(eps(q=2) ) ... 
  0.000   15.8463    0.0000   15.6164    0.0000   12.7767    0.0000   12.1627    0.0000   15.0077    0.0000   15.3467    0.0000
  0.020   15.8467    0.0041   15.6168    0.0041   12.7770    0.0030   12.1629    0.0027   15.0081    0.0039   15.3471    0.0040
  0.040   15.8479    0.0083   15.6180    0.0081   12.7779    0.0060   12.1638    0.0054   15.0093    0.0078   15.3483    0.0079
  0.060   15.8500    0.0124   15.6200    0.0122   12.7794    0.0090   12.1651    0.0081   15.0112    0.0116   15.3503    0.0119
  0.080   15.8529    0.0166   15.6229    0.0163   12.7815    0.0120   12.1670    0.0108   15.0139    0.0155   15.3531    0.0159
  0.100   15.8566    0.0207   15.6265    0.0203   12.7842    0.0150   12.1694    0.0136   15.0174    0.0194   15.3566    0.0199
  0.120   15.8611    0.0249   15.6310    0.0244   12.7875    0.0181   12.1724    0.0163   15.0217    0.0233   15.3610    0.0239
  0.140   15.8665    0.0291   15.6362    0.0285   12.7914    0.0211   12.1759    0.0190   15.0267    0.0272   15.3662    0.0279
  0.160   15.8727    0.0333   15.6423    0.0326   12.7959    0.0241   12.1800    0.0217   15.0325    0.0312   15.3721    0.0319
  0.180   15.8798    0.0374   15.6492    0.0367   12.8010    0.0271   12.1846    0.0245   15.0391    0.0351   15.3789    0.0359
  0.200   15.8877    0.0417   15.6570    0.0408   12.8068    0.0302   12.1898    0.0272   15.0465    0.0390   15.3864    0.0399
  0.220   15.8964    0.0459   15.6655    0.0450   12.8131    0.0333   12.1955    0.0300   15.0547    0.0430   15.3948    0.0440
  0.240   15.9060    0.0501   15.6749    0.0491   12.8200    0.0363   12.2017    0.0328   15.0636    0.0470   15.4040    0.0481
  0.260   15.9164    0.0544   15.6851    0.0533   12.8276    0.0394   12.2085    0.0355   15.0734    0.0509   15.4140    0.0521
  0.280   15.9276    0.0587   15.6962    0.0575   12.8358    0.0425   12.2159    0.0383   15.0840    0.0549   15.4248    0.0562
  0.300   15.9398    0.0630   15.7081    0.0617   12.8445    0.0456   12.2238    0.0411   15.0953    0.0590   15.4364    0.0604
  0.320   15.9528    0.0673   15.7208    0.0660   12.8539    0.0487   12.2323    0.0439   15.1075    0.0630   15.4489    0.0645
  0.340   15.9666    0.0716   15.7344    0.0702   12.8640    0.0519   12.2414    0.0468   15.1205    0.0671   15.4621    0.0687
  0.360   15.9813    0.0760   15.7488    0.0745   12.8746    0.0550   12.2510    0.0496   15.1342    0.0712   15.4762    0.0729
  0.380   15.9969    0.0804   15.7641    0.0788   12.8859    0.0582   12.2611    0.0525   15.1488    0.0753   15.4912    0.0771
  0.400   16.0134    0.0848   15.7802    0.0832   12.8979    0.0614   12.2719    0.0553   15.1643    0.0795   15.5070    0.0813
  0.420   16.0307    0.0893   15.7972    0.0875   12.9104    0.0646   12.2832    0.0582   15.1805    0.0836   15.5236    0.0856
  0.440   16.0490    0.0938   15.8151    0.0919   12.9236    0.0679   12.2951    0.0611   15.1976    0.0879   15.5411    0.0899
  0.460   16.0681    0.0983   15.8339    0.0964   12.9375    0.0711   12.3076    0.0641   15.2156    0.0921   15.5595    0.0943
  0.480   16.0882    0.1029   15.8536    0.1009   12.9520    0.0744   12.3207    0.0670   15.2344    0.0964   15.5787    0.0986
  0.500   16.1092    0.1075   15.8741    0.1054   12.9672    0.0778   12.3343    0.0700   15.2540    0.1007   15.5988    0.1031
  0.520   16.1310    0.1121   15.8956    0.1099   12.9830    0.0811   12.3486    0.0730   15.2745    0.1050   15.6198    0.1075
  0.540   16.1539    0.1168   15.9180    0.1145   12.9995    0.0845   12.3635    0.0760   15.2959    0.1094   15.6417    0.1120
  0.560   16.1776    0.1216   15.9413    0.1192   13.0167    0.0879   12.3789    0.0791   15.3181    0.1139   15.6645    0.1165
  0.580   16.2023    0.1263   15.9655    0.1239   13.0346    0.0913   12.3950    0.0822   15.3413    0.1184   15.6882    0.1211
  0.600   16.2280    0.1312   15.9906    0.1286   13.0531    0.0948   12.4117    0.0853   15.3653    0.1229   15.7128    0.1258
  0.620   16.2546    0.1361   16.0167    0.1334   13.0724    0.0983   12.4290    0.0884   15.3903    0.1275   15.7383    0.1304
  0.640   16.2823    0.1410   16.0438    0.1382   13.0923    0.1018   12.4470    0.0916   15.4162    0.1321   15.7648    0.1352
  0.660   16.3109    0.1460   16.0719    0.1431   13.1130    0.1054   12.4655    0.0947   15.4429    0.1368   15.7922    0.1400
  0.680   16.3405    0.1510   16.1009    0.1480   13.1344    0.1090   12.4848    0.0980   15.4707    0.1415   15.8206    0.1448
  0.700   16.3711    0.1561   16.1309    0.1531   13.1565    0.1127   12.5046    0.1012   15.4994    0.1463   15.8499    0.1497
  0.720   16.4027    0.1613   16.1619    0.1581   13.1793    0.1164   12.5251    0.1045   15.5290    0.1511   15.8803    0.1547
  0.740   16.4354    0.1665   16.1939    0.1633   13.2029    0.1201   12.5463    0.1079   15.5596    0.1560   15.9116    0.1597
  0.760   16.4691    0.1718   16.2270    0.1684   13.2272    0.1239   12.5682    0.1112   15.5912    0.1610   15.9439    0.1648
  0.780   16.5039    0.1772   16.2611    0.1737   13.2523    0.1277   12.5907    0.1146   15.6238    0.1660   15.9773    0.1699
  0.800   16.5397    0.1827   16.2962    0.1791   13.2781    0.1316   12.6139    0.1181   15.6574    0.1711   16.0116    0.1751
  0.820   16.5767    0.1882   16.3324    0.1845   13.3048    0.1355   12.6378    0.1216   15.6920    0.1763   16.0471    0.1804
  0.840   16.6148    0.1938   16.3698    0.1900   13.3322    0.1395   12.6624    0.1251   15.7277    0.1816   16.0836    0.1858
  0.860   16.6540    0.1995   16.4082    0.1955   13.3604    0.1436   12.6877    0.1287   15.7644    0.1869   16.1211    0.1913
  0.880   16.6943    0.2053   16.4477    0.2012   13.3894    0.1477   12.7137    0.1324   15.8022    0.1923   16.1598    0.1968
  0.900   16.7358    0.2111   16.4884    0.2069   13.4193    0.1518   12.7405    0.1360   15.8410    0.1978   16.1996    0.2024
  0.920   16.7784    0.2171   16.5302    0.2128   13.4499    0.1561   12.7679    0.1398   15.8810    0.2034   16.2405    0.2081
  0.940   16.8223    0.2231   16.5732    0.2187   13.4815    0.1603   12.7962    0.1436   15.9221    0.2090   16.2825    0.2139
  0.960   16.8673    0.2293   16.6173    0.2247   13.5139    0.1647   12.8252    0.1474   15.9643    0.2148   16.3257    0.2198
  0.980   16.9136    0.2355   16.6627    0.2308   13.5471    0.1691   12.8550    0.1513   16.0077    0.2206   16.3701    0.2258
  1.000   16.9612    0.2419   16.7093    0.2370   13.5813    0.1736   12.8855    0.1553   16.0522    0.2266   16.4157    0.2319
  1.020   17.0100    0.2483   16.7572    0.2434   13.6163    0.1782   12.9169    0.1593   16.0980    0.2327   16.4625    0.2381
  1.040   17.0602    0.2549   16.8063    0.2498   13.6523    0.1828   12.9490    0.1634   16.1449    0.2388   16.5106    0.2444
  1.060   17.1116    0.2616   16.8567    0.2564   13.6892    0.1875   12.9820    0.1675   16.1931    0.2451   16.5599    0.2508
  1.080   17.1644    0.2684   16.9085    0.2631   13.7270    0.1923   13.0158    0.1717   16.2426    0.2515   16.6105    0.2573
  1.100   17.2186    0.2754   16.9615    0.2699   13.7658    0.1972   13.0504    0.1760   16.2934    0.2580   16.6624    0.2640
  1.120   17.2741    0.2825   17.0160    0.2768   13.8056    0.2022   13.0860    0.1804   16.3454    0.2647   16.7157    0.2708
  1.140   17.3311    0.2897   17.0718    0.2839   13.8464    0.2072   13.1223    0.1848   16.3988    0.2714   16.7703    0.2777
  1.160   17.3895    0.2971   17.1291    0.2911   13.8882    0.2124   13.1596    0.1893   16.4535    0.2783   16.8263    0.2848
  1.180   17.4494    0.3046   17.1878    0.2984   13.9310    0.2176   13.1978    0.1939   16.5097    0.2854   16.8838    0.2920
  1.200   17.5109    0.3122   17.2480    0.3060   13.9749    0.2230   13.2369    0.1986   16.5672    0.2926   16.9426    0.2993
  1.220   17.5738    0.3201   17.3097    0.3136   14.0199    0.2285   13.2769    0.2033   16.6262    0.2999   17.0030    0.3068
  1.240   17.6383    0.3280   17.3729    0.3214   14.0660    0.2340   13.3179    0.2082   16.6867    0.3074   17.0649    0.3145
  1.260   17.7045    0.3362   17.4377    0.3294   14.1131    0.2397   13.3599    0.2131   16.7486    0.3150   17.1283    0.3223
  1.280   17.7722    0.3445   17.5041    0.3376   14.1615    0.2455   13.4029    0.2181   16.8121    0.3229   17.1932    0.3303
  1.300   17.8417    0.3531   17.5721    0.3459   14.2109    0.2514   13.4468    0.2233   16.8772    0.3309   17.2598    0.3385
  1.320   17.9128    0.3618   17.6418    0.3545   14.2616    0.2575   13.4918    0.2285   16.9439    0.3390   17.3280    0.3469
  1.340   17.9857    0.3707   17.7133    0.3632   14.3135    0.2637   13.5379    0.2339   17.0122    0.3474   17.3979    0.3554
  1.360   18.0604    0.3798   17.7865    0.3722   14.3666    0.2700   13.5850    0.2393   17.0822    0.3560   17.4695    0.3642
  1.380   18.1370    0.3892   17.8614    0.3813   14.4210    0.2765   13.6333    0.2449   17.1539    0.3647   17.5429    0.3731
  1.400   18.2154    0.3988   17.9383    0.3907   14.4767    0.2831   13.6826    0.2506   17.2274    0.3737   17.6181    0.3823
  1.420   18.2957    0.4086   18.0170    0.4003   14.5338    0.2898   13.7331    0.2564   17.3027    0.3829   17.6951    0.3917
  1.440   18.3780    0.4186   18.0976    0.4101   14.5922    0.2967   13.7847    0.2623   17.3798    0.3923   17.7740    0.4014
  1.460   18.4623    0.4289   18.1802    0.4202   14.6519    0.3038   13.8376    0.2684   17.4589    0.4020   17.8549    0.4112
  1.480   18.5487    0.4395   18.2648    0.4305   14.7131    0.3111   13.8917    0.2746   17.5398    0.4119   17.9377    0.4214
  1.500   18.6372    0.4503   18.3515    0.4411   14.7758    0.3185   13.9470    0.2810   17.6228    0.4221   18.0225    0.4318
  1.520   18.7279    0.4614   18.4403    0.4520   14.8399    0.3261   14.0036    0.2875   17.7078    0.4325   18.1095    0.4425
  1.540   18.8208    0.4728   18.5314    0.4632   14.9056    0.3339   14.0615    0.2941   17.7949    0.4433   18.1986    0.4534
  1.560   18.9160    0.4846   18.6246    0.4747   14.9728    0.3419   14.1207    0.3010   17.8841    0.4543   18.2899    0.4647
  1.580   19.0136    0.4966   18.7202    0.4865   15.0417    0.3502   14.1813    0.3079   17.9756    0.4656   18.3834    0.4763
  1.600   19.1135    0.5090   18.8181    0.4986   15.1122    0.3586   14.2433    0.3151   18.0693    0.4772   18.4793    0.4882
  1.620   19.2160    0.5218   18.9185    0.5111   15.1844    0.3673   14.3067    0.3224   18.1654    0.4892   18.5776    0.5004
  1.640   19.3210    0.5349   19.0214    0.5239   15.2583    0.3762   14.3717    0.3299   18.2639    0.5015   18.6783    0.5130
  1.660   19.4287    0.5484   19.1268    0.5371   15.3340    0.3853   14.4381    0.3377   18.3648    0.5142   18.7816    0.5260
  1.680   19.5391    0.5623   19.2349    0.5507   15.4116    0.3948   14.5061    0.3456   18.4683    0.5273   18.8874    0.5393
  1.700   19.6522    0.5766   19.3458    0.5647   15.4911    0.4044   14.5756    0.3537   18.5744    0.5407   18.9960    0.5531
  1.720   19.7683    0.5914   19.4594    0.5792   15.5724    0.4144   14.6468    0.3621   18.6832    0.5546   19.1073    0.5673
  1.740   19.8873    0.6066   19.5759    0.5940   15.6558    0.4247   14.7197    0.3706   18.7948    0.5689   19.2214    0.5819
  1.760   20.0093    0.6223   19.6955    0.6094   15.7413    0.4352   14.7943    0.3795   18.9093    0.5836   19.3385    0.5970
  1.780   20.1345    0.6385   19.8181    0.6253   15.8289    0.4461   14.8707    0.3885   19.0267    0.5989   19.4586    0.6126
  1.800   20.2630    0.6552   19.9439    0.6416   15.9186    0.4573   14.9489    0.3979   19.1472    0.6146   19.5818    0.6287
  1.820   20.3948    0.6725   20.0730    0.6585   16.0107    0.4689   15.0289    0.4075   19.2709    0.6309   19.7083    0.6453
  1.840   20.5301    0.6903   20.2054    0.6760   16.1050    0.4809   15.1109    0.4173   19.3978    0.6477   19.8381    0.6625
  1.860   20.6689    0.7088   20.3414    0.6941   16.2017    0.4932   15.1949    0.4275   19.5280    0.6651   19.9714    0.6803
  1.880   20.8115    0.7279   20.4810    0.7128   16.3009    0.5059   15.2809    0.4380   19.6618    0.6830   20.1082    0.6987
  1.900   20.9579    0.7477   20.6244    0.7321   16.4027    0.5191   15.3690    0.4488   19.7991    0.7017   20.2487    0.7177
  1.920   21.1083    0.7682   20.7716    0.7522   16.5071    0.5327   15.4593    0.4600   19.9402    0.7210   20.3930    0.7375
  1.940   21.2627    0.7894   20.9228    0.7730   16.6142    0.5468   15.5518    0.4715   20.0852    0.7409   20.5413    0.7580
  1.960   21.4215    0.8115   21.0783    0.7945   16.7242    0.5614   15.6467    0.4834   20.2342    0.7617   20.6937    0.7792
  1.980   21.5846    0.8343   21.2380    0.8169   16.8371    0.5765   15.7439    0.4956   20.3873    0.7832   20.8503    0.8012
  2.000   21.7523    0.8580   21.4022    0.8401   16.9530    0.5922   15.8436    0.5083   20.5448    0.8056   21.0114    0.8241
  2.020   21.9248    0.8827   21.5711    0.8642   17.0720    0.6084   15.9458    0.5214   20.7067    0.8288   21.1770    0.8479
  2.040   22.1022    0.9083   21.7447    0.8892   17.1944    0.6253   16.0507    0.5350   20.8732    0.8529   21.3474    0.8727
  2.060   22.2847    0.9349   21.9234    0.9153   17.3200    0.6427   16.1582    0.5490   21.0446    0.8780   21.5228    0.8984
  2.080   22.4726    0.9626   22.1074    0.9424   17.4492    0.6609   16.2686    0.5635   21.2211    0.9042   21.7033    0.9252
  2.100   22.6660    0.9915   22.2967    0.9707   17.5820    0.6798   16.3819    0.5786   21.4027    0.9314   21.8891    0.9532
  2.120   22.8651    1.0216   22.4917    1.0002   17.7186    0.6995   16.4982    0.5942   21.5898    0.9598   22.0806    0.9823
  2.140   23.0703    1.0530   22.6926    1.0309   17.8592    0.7200   16.6177    0.6104   21.7826    0.9895   22.2779    1.0127
  2.160   23.2818    1.0857   22.8996    1.0630   18.0038    0.7413   16.7404    0.6272   21.9813    1.0204   22.4812    1.0445
  2.180   23.4998    1.1200   23.1131    1.0965   18.1527    0.7635   16.8664    0.6446   22.1862    1.0527   22.6909    1.0777
  2.200   23.7246    1.1557   23.3332    1.1315   18.3060    0.7867   16.9960    0.6628   22.3975    1.0865   22.9072    1.1125
  2.220   23.9566    1.1932   23.5603    1.1682   18.4640    0.8110   17.1292    0.6816   22.6156    1.1219   23.1305    1.1489
  2.240   24.1961    1.2324   23.7947    1.2065   18.6268    0.8363   17.2661    0.7013   22.8407    1.1590   23.3610    1.1871
  2.260   24.4434    1.2735   24.0368    1.2468   18.7946    0.8628   17.4070    0.7217   23.0732    1.1978   23.5991    1.2271
  2.280   24.6988    1.3166   24.2869    1.2890   18.9678    0.8906   17.5520    0.7430   23.3135    1.2386   23.8452    1.2692
  2.300   24.9628    1.3618   24.5454    1.3334   19.1464    0.9197   17.7012    0.7653   23.5619    1.2814   24.0996    1.3134
  2.320   25.2359    1.4094   24.8127    1.3800   19.3309    0.9502   17.8548    0.7885   23.8188    1.3264   24.3629    1.3599
  2.340   25.5184    1.4595   25.0893    1.4290   19.5214    0.9823   18.0131    0.8127   24.0846    1.3738   24.6353    1.4089
  2.360   25.8108    1.5122   25.3756    1.4807   19.7184    1.0161   18.1763    0.8380   24.3599    1.4238   24.9175    1.4607
  2.380   26.1138    1.5678   25.6722    1.5353   19.9220    1.0516   18.3445    0.8646   24.6451    1.4765   25.2099    1.5153
  2.400   26.4277    1.6265   25.9796    1.5928   20.1326    1.0890   18.5180    0.8923   24.9407    1.5321   25.5132    1.5731
  2.420   26.7533    1.6886   26.2984    1.6537   20.3507    1.1285   18.6970    0.9215   25.2474    1.5909   25.8278    1.6343
  2.440   27.0911    1.7543   26.6293    1.7182   20.5766    1.1702   18.8818    0.9520   25.5656    1.6532   26.1546    1.6992
  2.460   27.4419    1.8239   26.9728    1.7865   20.8107    1.2144   19.0727    0.9841   25.8962    1.7192   26.4941    1.7682
  2.480   27.8065    1.8977   27.3299    1.8590   21.0536    1.2612   19.2699    1.0179   26.2398    1.7893   26.8472    1.8416
  2.500   28.1856    1.9763   27.7012    1.9361   21.3057    1.3108   19.4739    1.0534   26.5973    1.8638   27.2146    1.9197
  2.520   28.5801    2.0598   28.0876    2.0182   21.5675    1.3636   19.6850    1.0909   26.9694    1.9431   27.5974    2.0032
  2.540   28.9911    2.1489   28.4902    2.1058   21.8397    1.4198   19.9034    1.1305   27.3570    2.0277   27.9964    2.0925
  2.560   29.4195    2.2441   28.9099    2.1994   22.1229    1.4798   20.1297    1.1722   27.7612    2.1180   28.4129    2.1883
  2.580   29.8665    2.3460   29.3479    2.2996   22.4178    1.5439   20.3643    1.2165   28.1831    2.2146   28.8479    2.2911
  2.600   30.3333    2.4551   29.8054    2.4071   22.7252    1.6126   20.6075    1.2633   28.6239    2.3182   29.3028    2.4018
  2.620   30.8214    2.5724   30.2838    2.5226   23.0459    1.6863   20.8601    1.3130   29.0848    2.4295   29.7790    2.5213
  2.640   31.3322    2.6986   30.7845    2.6471   23.3809    1.7656   21.1224    1.3658   29.5673    2.5492   30.2781    2.6507
  2.660   31.8673    2.8349   31.3092    2.7814   23.7311    1.8511   21.3950    1.4221   30.0730    2.6783   30.8018    2.7911
  2.680   32.4286    2.9822   31.8596    2.9269   24.0977    1.9436   21.6787    1.4820   30.6035    2.8179   31.3521    2.9439
  2.700   33.0181    3.1420   32.4379    3.0848   24.4819    2.0440   21.9742    1.5461   31.1609    2.9691   31.9311    3.1109
  2.720   33.6379    3.3158   33.0460    3.2567   24.8851    2.1532   22.2821    1.6147   31.7471    3.1333   32.5412    3.2940
  2.740   34.2906    3.5055   33.6866    3.4445   25.3088    2.2725   22.6034    1.6882   32.3646    3.3123   33.1850    3.4956
  2.760   34.9789    3.7130   34.3623    3.6502   25.7547    2.4032   22.9389    1.7672   33.0160    3.5077   33.8654    3.7185
  2.780   35.7057    3.9411   35.0760    3.8765   26.2246    2.5471   23.2897    1.8524   33.7041    3.7219   34.5858    3.9661
  2.800   36.4744    4.1925   35.8312    4.1264   26.7205    2.7063   23.6570    1.9444   34.4321    3.9573   35.3496    4.2428
  2.820   37.2887    4.4710   36.6316    4.4037   27.2449    2.8831   24.0418    2.0439   35.2038    4.2171   36.1609    4.5536
  2.840   38.1528    4.7809   37.4811    4.7127   27.8000    3.0807   24.4456    2.1521   36.0230    4.5048   37.0240    4.9050
  2.860   39.0712    5.1276   38.3845    5.0590   28.3888    3.3028   24.8699    2.2698   36.8944    4.8247   37.9435    5.3053
  2.880   40.0488    5.5175   39.3465    5.4493   29.0141    3.5543   25.3164    2.3985   37.8231    5.1819   38.9242    5.7648
  2.900   41.0910    5.9588   40.3725    5.8920   29.6789    3.8410   25.7869    2.5396   38.8148    5.5829   39.9705    6.2968
  2.920   42.2033    6.4618   41.4679    6.3979   30.3862    4.1706   26.2836    2.6949   39.8760    6.0351   41.0864    6.9186
  2.940   43.3911    7.0393   42.6381    6.9802   31.1383    4.5529   26.8086    2.8665   41.0138    6.5479   42.2736    7.6525
  2.960   44.6591    7.7076   43.8875    7.6561   31.9367    5.0004   27.3648    3.0569   42.2364    7.1331   43.5297    8.5276
  2.980   46.0101    8.4874   45.2183    8.4471   32.7801    5.5289   27.9549    3.2693   43.5528    7.8051   44.8445    9.5809
  3.000   47.4426    9.4041   46.6283    9.3799   33.6627    6.1583   28.5822    3.5073   44.9726    8.5823   46.1929   10.8580
  3.020   48.9475   10.4877   48.1072   10.4861   34.5703    6.9113   29.2504    3.7756   46.5065    9.4881   47.5242   12.4098
  3.040   50.5033   11.7696   49.6309   11.7987   35.4752    7.8099   29.9634    4.0800   48.1650   10.5525   48.7473   14.2805
  3.060   52.0708   13.2737   51.1566   13.3428   36.3315    8.8657   30.7257    4.4275   49.9581   11.8142   49.7170   16.4758
  3.080   53.5967   14.9985   52.6261   15.1169   37.0785   10.0608   31.5421    4.8272   51.8933   13.3241   50.2456   18.9033
  3.100   55.0382   16.8978   53.9915   17.0721   37.6667   11.3262   32.4176    5.2905   53.9724   15.1484   50.1840   21.3066
  3.120   56.4163   18.8907   55.2712   19.1231   38.1131   12.5514   33.3571    5.8322   56.1852   17.3737   49.5932   23.2877
  3.140   57.8508   20.9378   56.5865   21.2284   38.5390   13.6596   34.3649    6.4713   58.4989   20.1118   48.8678   24.5324
  3.160   59.4998   23.1363   58.0959   23.4913   39.1114   14.7041   35.4438    7.2325   60.8395   23.5019   48.5731   25.0986
  3.180   61.4304   25.7194   59.8561   26.1569   39.9147   15.8648   36.5928    8.1478   63.0619   27.7044   49.0848   25.4131
  3.200   63.5499   28.9551   61.7461   29.5022   40.8887   17.3447   37.8042    9.2581   64.9101   32.8708   50.4330   25.9874
  3.220   65.6261   33.0526   63.4875   33.7278   41.8597   19.2769   39.0582   10.6141   65.9831   39.0677   52.4227   27.2069
  3.240   67.3388   38.1103   64.7024   38.8895   42.6029   21.6819   40.3158   12.2760   65.7647   46.1437   54.7848   29.3180
  3.260   68.3471   44.0924   65.0038   44.8572   42.9142   24.4552   41.5088   14.3098   63.8038   53.6102   57.2253   32.4933
  3.280   68.3651   50.8738   64.1119   51.3601   42.6922   27.4137   42.5253   16.7805   60.0126   60.7511   59.3909   36.8681
  3.300   67.1217   58.3546   61.8514   58.1309   41.9400   30.4130   43.1877   19.7298   54.7166   67.0371   60.8032   42.5044
  3.320   64.1439   66.4117   57.9630   64.8962   40.6312   33.3843   43.2358   23.1194   48.1999   72.3283   60.8270   49.2563
  3.340   58.7124   74.4881   52.1136   71.0511   38.6459   36.1663   42.3691   26.7327   40.3984   76.3934   58.7892   56.5569
  3.360   50.4231   81.2285   44.4122   75.5424   35.9907   38.3807   40.4007   30.1151   31.4296   78.4770   54.3681   63.3149
  3.380   40.0526   84.9181   35.8135   77.4703   33.0435   39.6693   37.4602   32.6733   22.2402   77.8220   48.0869   68.2745
  3.400   29.6224   84.7492   27.6797   76.7862   30.3927   40.0799   34.0759   33.9389   14.2853   74.5487   41.2760   70.8473
  3.420   21.1462   81.5812   21.0100   74.2313   28.3792   40.0755   31.0286   33.8607    8.6034   69.7555   35.1811   71.5522
  3.440   15.3893   77.1893   16.1264   70.8079   26.8924   40.1401   28.9768   32.9210    5.2542   64.8814   30.1607   71.3788
  3.460   11.8871   73.0674   12.7919   67.3118   25.5891   40.4451   28.0922   31.8849    3.4046   60.9194   25.9312   70.9232
  3.480    9.6049   69.8801   10.5657   64.1232   24.2481   40.8750   28.0504   31.3711    1.9455   57.9440   22.2141   70.3477
  3.500    7.6504   67.4070    9.1044   61.3263   22.8577   41.3263   28.3020   31.6144    0.2764   55.2462   18.8320   69.6853
  3.520    5.8959   65.0766    8.2332   58.8991   21.3888   41.7981   28.3684   32.4637   -1.2803   52.0873   15.7527   68.8056
  3.540    4.7421   62.8785    7.9440   56.8686   19.7688   42.2015   28.0819   33.5541   -1.9375   48.5036   13.3291   67.7929
  3.560    4.1115   61.3791    8.2355   55.4822   18.0842   42.4132   27.6292   34.6642   -1.3620   45.2525   11.5910   67.4097
  3.580    3.2533   60.6620    8.8090   55.1014   16.4628   42.5180   27.1999   35.9775   -0.0030   43.0553    9.5150   68.1130
  3.600    1.9452   60.0106    9.0548   55.8200   14.7805   42.6477   26.5428   37.8366    1.3024   41.9916    6.1664   68.9619
  3.620    0.7869   59.4019    8.4242   57.2920   12.8486   42.6299   24.9927   40.1747    2.0809   41.4305    2.2172   68.8657
  3.640   -0.6327   59.5005    6.7047   59.0130   10.8329   42.1882   22.0508   42.1895    2.7479   40.8288   -1.5242   68.4108
  3.660   -3.2857   59.6511    3.8073   60.5519    9.0483   41.4328   18.1438   42.7423    3.8264   40.5967   -5.9572   68.0199
  3.680   -6.7097   58.5771   -0.2892   61.2569    7.4012   40.6546   14.6248   41.4764    4.9312   41.4510  -11.5131   66.3001
  3.700   -9.6402   56.2864   -4.9909   60.3704    5.5893   39.7028   12.5509   39.3383    5.0727   43.4363  -16.6542   62.3396
  3.720  -11.7521   53.7025   -9.2313   57.8705    3.7869   38.1734   11.7054   37.6075    3.4113   45.7265  -20.0052   57.1757
  3.740  -13.6186   51.1870  -12.4653   54.4534    2.4633   36.1229   11.0120   36.6764   -0.0830   46.9236  -21.8017   52.1188
  3.760  -15.5454   48.2701  -14.8182   50.6034    1.7234   33.8812    9.7335   35.7827   -4.2983   45.9027  -22.8306   47.4017
  3.780  -17.0563   44.5138  -16.3493   46.3472    1.5126   31.5351    8.3440   33.9759   -7.6222   42.7204  -23.2716   42.6796
  3.800  -17.4641   40.1725  -16.7978   41.8026    1.9654   29.1523    7.9039   31.3421   -9.0902   38.4575  -22.8280   37.9382
  3.820  -16.5468   35.9239  -15.9995   37.4156    3.1806   27.0131    8.8261   28.7465   -8.7147   34.2672  -21.3795   33.5552
  3.840  -14.5538   32.3172  -14.1279   33.6615    5.0394   25.4270   10.8170   26.8843   -6.9983   30.8190  -19.1345   29.8800
  3.860  -11.8787   29.5969  -11.5377   30.8018    7.3067   24.5754   13.4195   26.0414   -4.4638   28.3463  -16.4097   27.0492
  3.880   -8.8579   27.8039   -8.5704   28.9030    9.7465   24.5326   16.2650   26.2970   -1.4894   26.8702  -13.4706   25.0515
  3.900   -5.7367   26.9023   -5.4952   27.9388   12.1393   25.3285   19.0537   27.6962    1.6781   26.3606  -10.5055   23.8233
  3.920   -2.7118   26.8437   -2.5359   27.8539   14.2448   26.9707   21.4471   30.3018    4.8561   26.8122   -7.6599   23.2984
  3.940    0.0157   27.5686    0.0816   28.5617   15.7590   29.4055   22.9440   34.1308    7.8476   28.2667   -5.0782   23.4069
  3.960    2.2122   28.9496    2.1204   29.8820   16.3247   32.4137   22.8070   38.9341   10.3502   30.7850   -2.9260   24.0348
  3.980    3.6686   30.7005    3.4286   31.4651   15.6836   35.5038   20.2536   43.8018   11.8577   34.3247   -1.3526   24.9555
  4.000    4.3956   32.3626    4.1552   32.8633   13.9720   38.0080   15.2496   46.9767   11.6654   38.4338   -0.3567   25.8124
  4.020    4.8140   33.5734    4.8275   33.8958   11.8231   39.5399    9.4692   46.8368    9.3420   41.8391    0.3592   26.2855
  4.040    5.5372   34.4870    5.9467   34.9787    9.8718   40.3761    5.5829   43.7234    5.8886   42.7953    1.2856   26.3837
  4.060    6.8011   35.7604    7.4210   36.8962    8.1235   41.0751    4.9981   39.9196    3.9587   41.0899    2.7492   26.4935
  4.080    8.1960   38.0524    8.3826   40.2070    6.1068   41.6888    7.1478   37.7627    5.3976   39.1137    4.7148   27.1073
  4.100    8.8380   41.5621    7.3545   44.5300    3.7390   41.6253   10.3840   38.6930    9.5219   39.8096    6.8682   28.5921
  4.120    7.7417   45.7104    3.3417   47.5352    1.7761   40.5273   12.3190   43.2612   13.9501   45.0841    8.7218   31.1245
  4.140    4.5683   49.0329   -0.8767   45.9415    1.0309   39.0134    9.6734   50.1276   14.8067   55.4918    9.6372   34.6010
  4.160    0.5299   50.0566    0.8620   42.3631    1.4526   38.1708    0.8689   54.1111    6.6728   67.6137    8.9844   38.3833
  4.180   -2.1906   49.0210    7.2483   46.0713    2.1921   38.6901   -8.8924   50.3346  -10.4499   71.0448    6.8133   41.2063
  4.200   -2.5716   47.9464    5.3769   58.8002    2.1009   40.4886  -13.1220   41.9265  -23.7484   61.2580    4.5805   42.2181
  4.220   -1.5518   48.8172   -9.6689   63.1862    0.2943   42.5735  -11.8815   34.3528  -25.6395   48.7747    3.9871   42.5676
  4.240   -1.2249   52.3779  -18.6257   54.0653   -2.9892   43.3584   -7.8399   29.5614  -20.7560   41.5526    4.6670   44.5520
  4.260   -3.9736   57.6371  -17.0894   46.2651   -6.0682   42.0692   -2.7381   27.5247  -14.5614   40.6637    4.1586   49.0979
  4.280  -10.9689   61.4736  -12.5218   44.9692   -7.3503   39.8204    2.6132   28.0158  -10.6869   45.0237   -0.1042   54.3563
  4.300  -19.8548   60.3894  -10.3630   49.0245   -6.9294   38.4956    7.6565   31.1548  -12.1079   52.2018   -7.8647   56.4247
  4.320  -25.9443   54.6690  -13.9045   54.6209   -6.3243   39.1338   11.4133   37.4314  -19.9056   57.5202  -15.0864   53.4486
  4.340  -27.1818   48.2410  -22.2445   56.1105   -7.4627   41.1994   11.6087   47.1116  -30.6120   56.5929  -18.3448   48.0034
  4.360  -25.1204   44.4877  -29.6923   51.4698  -11.1962   42.4269    4.3801   57.8618  -38.8318   49.9580  -17.8179   43.6041
  4.380  -22.7028   44.6537  -32.4428   44.3845  -15.6562   40.6243  -11.0235   61.8075  -42.5489   41.4012  -15.4973   42.0445
  4.400  -23.1402   47.8535  -31.2692   38.6745  -17.9386   36.5874  -25.0406   53.4798  -42.8305   33.5940  -13.5919   43.6779
  4.420  -28.3432   50.4434  -28.3751   35.8215  -17.4712   32.9378  -29.1582   40.1627  -41.2338   27.3431  -14.3587   47.6701
  4.440  -35.7484   48.2060  -25.7827   35.9604  -15.7038   31.3078  -25.6598   29.8154  -38.7919   22.5619  -19.4031   51.3230
  4.460  -40.4145   41.7088  -25.4576   38.2849  -14.5294   31.8280  -18.9619   24.2382  -36.0393   18.9400  -27.2572   50.8192
  4.480  -40.9513   34.7459  -28.7413   40.3471  -15.4834   33.2370  -11.4193   23.1248  -33.2130   16.1827  -33.3370   45.4536
  4.500  -38.9079   29.6230  -34.0870   38.9095  -18.5123   33.2376   -4.5498   26.5568  -30.3894   14.0620  -35.0295   38.7028
  4.520  -36.0450   26.8453  -37.5999   33.8783  -21.4380   30.6514   -1.0546   34.7977  -27.5491   12.4103  -33.5093   33.8545
  4.540  -33.7466   26.1274  -37.6761   28.2780  -22.3816   26.7399   -5.4519   44.9821  -24.5827   11.0983  -31.2819   31.9679
  4.560  -33.1136   26.5253  -35.5103   24.3754  -21.3707   23.2472  -17.4405   48.6038  -21.2166    9.9924  -30.6300   32.2287
  4.580  -34.3357   26.3760  -32.9162   22.7941  -19.2952   21.0088  -27.5572   42.7620  -16.6623    8.7805  -32.4657   32.3301
  4.600  -36.0920   24.5085  -31.5871   22.9652  -17.0475   20.1948  -31.1045   34.0915   -7.5640    5.1038  -35.2959   30.2917
  4.620  -36.9065   21.4090  -32.3047   23.0551  -15.4755   20.5533  -30.3931   27.0013  -24.4833  -35.0161  -37.0044   26.4837
  4.640  -36.4946   18.1791  -33.7642   21.4466  -15.1693   21.1889  -27.9323   22.1044  -31.2399    2.2739  -37.0473   22.3796
  4.660  -35.2753   15.4157  -34.2698   18.6348  -15.6295   20.9451  -24.9252   18.9416  -24.2123    5.8294  -35.9428   18.8448
  4.680  -33.6709   13.2337  -33.6044   15.8150  -15.6120   19.8096  -21.8356   17.0565  -20.3457    6.8760  -34.2667   16.0740
  4.700  -31.9313   11.5656  -32.2562   13.5205  -14.6869   18.6960  -18.8315   16.1719  -17.4952    7.6254  -32.3732   13.9967
  4.720  -30.1769   10.3203  -30.6297   11.8086  -13.2093   18.2203  -15.9948   16.1695  -15.0926    8.4983  -30.4472   12.5013
  4.740  -28.4619    9.4362  -28.9483   10.6085  -11.6329   18.5592  -13.4304   17.0512  -12.9688    9.6953  -28.5941   11.5070
  4.760  -26.8248    8.8977  -27.3478    9.8527  -10.3394   19.7087  -11.3617   18.8895  -11.1451   11.3893  -26.9150   10.9698
  4.780  -25.3506    8.7316  -25.9666    9.4758   -9.7103   21.5643  -10.2360   21.7112   -9.8355   13.7340  -25.5691   10.8306
  4.800  -24.2628    8.9216  -24.9649    9.3195  -10.1556   23.8307  -10.7618   25.2153   -9.5074   16.7389  -24.7590   10.8790
  4.820  -23.8438    9.1176  -24.3580    9.0673  -11.9598   25.8907  -13.5637   28.3568  -10.8095   19.9468  -24.4752   10.6769
  4.840  -23.7965    8.6991  -23.8531    8.5067  -14.9333   26.8880  -18.2277   29.4720  -13.9870   22.1568  -24.2693    9.9495
  4.860  -23.3926    7.7836  -23.1640    7.7784  -18.2339   26.2373  -22.9007   27.7026  -18.0171   22.1026  -23.7211    8.9423
  4.880  -22.5494    6.9153  -22.2736    7.1044  -20.8278   24.1305  -25.8303   24.0010  -21.1354   19.8929  -22.8258    8.0094
  4.900  -21.5137    6.2819  -21.2776    6.5771  -22.1793   21.3368  -26.7221   19.9441  -22.5115   16.8340  -21.7476    7.2921
  4.920  -20.4359    5.8599  -20.2499    6.2028  -22.3669   18.5925  -26.1977   16.4513  -22.4623   14.0053  -20.6079    6.7949
  4.940  -19.3703    5.6010  -19.2271    5.9660  -21.7441   16.3005  -24.9189   13.7545  -21.5941   11.7992  -19.4654    6.4901
  4.960  -18.3303    5.4753  -18.2247    5.8553  -20.6573   14.5919  -23.3048   11.7833  -20.3418   10.2220  -18.3442    6.3580
  4.980  -17.3168    5.4723  -17.2509    5.8686  -19.3605   13.4701  -21.5706   10.4059  -18.9399    9.1731  -17.2569    6.3961
  5.000  -16.3291    5.5977  -16.3154    6.0148  -18.0362   12.9064  -19.8141    9.5175  -17.5003    8.5587  -16.2201    6.6197
  5.020  -15.3732    5.8728  -15.4383    6.3122  -16.8475   12.8730  -18.0788    9.0630  -16.0765    8.3227  -15.2708    7.0612
  5.040  -14.4712    6.3351  -14.6620    6.7837  -15.9920   13.3246  -16.3967    9.0427  -14.7051    8.4500  -14.4916    7.7591
  5.060  -13.6803    7.0369  -14.0663    7.4417  -15.7280   14.1146  -14.8334    9.5143  -13.4367    8.9625  -14.0443    8.7183
  5.080  -13.1262    8.0295  -13.7771    8.2461  -16.2813   14.8588  -13.5585   10.5761  -12.3716    9.9071  -14.1729    9.7984
  5.100  -13.0488    9.2962  -13.9247    9.0328  -17.5366   14.9358  -12.9538   12.2642  -11.7044   11.3168  -15.0292   10.5590
  5.120  -13.7815   10.5759  -14.4897    9.4905  -18.8060   13.9413  -13.6182   14.2229  -11.7537   13.1059  -16.2525   10.4125
  5.140  -15.4282   11.1701  -15.1396    9.3693  -19.2906   12.1995  -15.7781   15.3408  -12.8673   14.8857  -16.9912    9.3393
  5.160  -17.2731   10.3365  -15.4165    8.8116  -18.7447   10.4729  -18.3326   14.5625  -15.0527   15.9020  -16.7801    8.0499
  5.180  -18.1243    8.3158  -15.1701    8.2730  -17.4343    9.4009  -19.7781   12.3960  -17.6105   15.5125  -15.8430    7.2075
  5.200  -17.5524    6.1208  -14.6355    8.1319  -15.9087    9.4396  -19.8743   10.0846  -19.5539   13.8723  -14.6295    7.1037
  5.220  -15.8096    4.4338  -14.2368    8.4899  -15.2655   10.6957  -19.1637    8.2416  -20.4443   11.7329  -13.6273    7.8186
  5.240  -12.9230    3.6121  -14.3926    9.0924  -16.5944   11.6532  -18.1128    6.9228  -20.4585    9.7139  -13.4630    9.1512
  5.260   -8.2024    5.1080  -15.1755    9.3539  -18.2334   10.5441  -16.9564    6.0196  -19.9475    8.0596  -14.5772   10.2248
  5.280   -6.6161   15.9347  -16.0712    8.8659  -18.4903    8.6462  -15.7878    5.4250  -19.1800    6.7839  -16.2666    9.9827
  5.300  -19.9651   14.9261  -16.5107    7.8595  -17.8446    7.1360  -14.6344    5.0688  -18.3096    5.8232  -17.2822    8.6517
  5.320  -20.2887    8.3088  -16.4003    6.7987  -16.8893    6.1280  -13.4970    4.9170  -17.4117    5.1071  -17.3659    7.1599
  5.340  -18.5617    5.6809  -15.9260    5.9359  -15.8669    5.4983  -12.3681    4.9685  -16.5179    4.5802  -16.8891    5.9651
  5.360  -17.0194    4.4675  -15.2699    5.3262  -14.8559    5.1518  -11.2455    5.2571  -15.6368    4.2050  -16.1706    5.1173
  5.380  -15.6979    3.8338  -14.5426    4.9532  -13.8842    5.0472  -10.1532    5.8606  -14.7650    3.9616  -15.3688    4.5542
  5.400  -14.5091    3.5117  -13.8063    4.7954  -12.9800    5.1864   -9.1926    6.9087  -13.8932    3.8476  -14.5491    4.2174
  5.420  -13.3807    3.4147  -13.1083    4.8457  -12.2120    5.6013   -8.6562    8.5425  -13.0105    3.8831  -13.7383    4.0783
  5.440  -12.2579    3.5460  -12.5121    5.1084  -11.7404    6.3073   -9.1698   10.6473  -12.1148    4.1220  -12.9582    4.1405
  5.460  -11.1096    3.9944  -12.1258    5.5688  -11.8329    7.1607  -11.3247   12.2212  -11.2443    4.6751  -12.2577    4.4371
  5.480   -9.9936    4.9863  -12.0978    6.1176  -12.6239    7.6674  -14.2028   11.7540  -10.5820    5.7203  -11.7644    5.0036
  5.500   -9.3534    6.9137  -12.4881    6.4729  -13.6326    7.2986  -15.8336    9.6104  -10.6957    7.3139  -11.7267    5.7570
  5.520  -10.6809    9.5272  -13.0483    6.3340  -14.1172    6.2595  -15.8930    7.3989  -12.3472    8.5386  -12.3262    6.2717
  5.540  -14.3052    9.6642  -13.3499    5.7513  -13.9389    5.1623  -15.1365    5.8085  -14.4700    7.7778  -13.1554    6.0187
  5.560  -15.9408    6.9136  -13.2215    5.0669  -13.3653    4.3134  -14.1064    4.8087  -15.1463    5.9240  -13.5140    5.1829
  5.580  -15.3565    4.7176  -12.7746    4.5372  -12.6229    3.7360  -13.0232    4.2396  -14.7187    4.4552  -13.3035    4.3347
  5.600  -14.2207    3.5545  -12.1688    4.2465  -11.8155    3.3763  -11.9541    3.9896  -13.9550    3.5490  -12.7848    3.7231
  5.620  -13.0698    3.0003  -11.5159    4.2051  -10.9719    3.1893  -10.9147    4.0116  -13.1578    3.0126  -12.1517    3.3504
  5.640  -11.9761    2.8060  -10.9003    4.4182  -10.0816    3.1584   -9.9178    4.3138  -12.4008    2.6971  -11.4884    3.1697
  5.660  -10.9154    2.8897  -10.4278    4.8952   -9.1069    3.3043   -9.0111    4.9525  -11.6894    2.5215  -10.8256    3.1514
  5.680   -9.8645    3.2830  -10.2685    5.6001   -7.9769    3.7109   -8.3354    6.0112  -11.0119    2.4455  -10.1784    3.2933
  5.700   -8.8672    4.1321  -10.6246    6.3268   -6.5654    4.6176   -8.2032    7.5028  -10.3542    2.4526   -9.5728    3.6204
  5.720   -8.2130    5.6921  -11.4799    6.6393   -4.6873    6.7945   -9.0608    9.0982   -9.7032    2.5417   -9.0772    4.1779
  5.740   -8.8083    7.9353  -12.3657    6.2409   -3.1542   13.4676  -10.9678    9.9307   -9.0484    2.7254   -8.8513    4.9892
  5.760  -11.4842    9.1892  -12.7799    5.3860  -21.3827   22.7879  -13.0187    9.3534   -8.3846    3.0314   -9.1600    5.9149
  5.780  -14.0461    7.7171  -12.6694    4.5239  -23.0533    2.1284  -14.2246    7.8529   -7.7190    3.5081  -10.1244    6.4641
  5.800  -14.5804    5.4508  -12.2326    3.8831  -16.4555   -0.9590  -14.5073    6.2728   -7.0887    4.2311  -11.2423    6.1374
  5.820  -14.0008    3.8565  -11.6447    3.5069  -13.1577   -1.3094  -14.2462    4.9952   -6.6030    5.3018  -11.7947    5.1892
  5.840  -13.1270    2.9113  -11.0093    3.3901  -11.0046   -1.3256  -13.7499    4.0504   -6.5208    6.7957  -11.6933    4.2328
  5.860  -12.2154    2.3744  -10.4047    3.5433   -9.1905   -1.2850  -13.1773    3.3657   -7.3023    8.5515  -11.2215    3.5488
  5.880  -11.3029    2.1049   -9.9552    3.9941   -7.2719   -1.1748  -12.5958    2.8667   -9.2862    9.8162  -10.6000    3.1524
  5.900  -10.3584    2.0633   -9.8995    4.6910   -4.7453   -0.7662  -12.0289    2.4992  -11.8287    9.5893   -9.9321    3.0009
  5.920   -9.3311    2.3187  -10.4745    5.2695   -0.7207    1.0837  -11.4803    2.2275  -13.6002    8.0097   -9.2622    3.0735
  5.940   -8.2279    3.1400  -11.3936    5.1549    3.3551   10.2621  -10.9448    2.0308  -14.1861    6.1376   -8.6283    3.3882
  5.960   -7.5775    5.1308  -11.9407    4.3979  -10.9436   17.4492  -10.4113    1.9006  -14.0177    4.6048   -8.1121    3.9974
  5.980   -9.5851    7.6711  -11.9229    3.5560  -15.5079    8.9079   -9.8647    1.8423  -13.5326    3.4947   -7.9088    4.9409
