# Phonon frequencies in cm-1
    1           0.000           0.000           0.000         359.067         415.785         447.015         475.220         559.724         684.362         740.781         803.869         847.186
    2           2.666           2.920           6.362         359.103         415.785         447.023         475.191         559.720         684.379         740.768         803.851         847.177
    3           5.332           5.839          12.724         359.213         415.788         447.044         475.102         559.708         684.430         740.731         803.796         847.151
    4           7.999           8.758          19.084         359.394         415.793         447.079         474.954         559.689         684.515         740.668         803.705         847.107
    5          10.666          11.678          25.444         359.646         415.800         447.129         474.748         559.662         684.634         740.579         803.577         847.047
    6          13.334          14.596          31.801         359.967         415.812         447.193         474.483         559.627         684.787         740.466         803.412         846.968
    7          16.002          17.515          38.157         360.356         415.829         447.271         474.159         559.585         684.974         740.327         803.211         846.873
    8          18.671          20.432          44.510         360.810         415.853         447.363         473.777         559.535         685.193         740.162         802.973         846.760
    9          21.342          23.350          50.860         361.325         415.887         447.470         473.338         559.477         685.446         739.973         802.699         846.630
   10          24.014          26.266          57.206         361.899         415.932         447.590         472.841         559.412         685.731         739.757         802.388         846.482
   11          26.687          29.182          63.548         362.527         415.992         447.725         472.288         559.339         686.048         739.516         802.041         846.318
   12          29.362          32.097          69.886         363.204         416.069         447.873         471.678         559.259         686.396         739.249         801.658         846.136
   13          32.038          35.011          76.219         363.926         416.169         448.036         471.013         559.171         686.776         738.955         801.238         845.937
   14          34.716          37.924          82.546         364.686         416.296         448.212         470.293         559.076         687.186         738.636         800.782         845.721
   15          37.396          40.836          88.868         365.478         416.454         448.402         469.518         558.974         687.626         738.290         800.290         845.488
   16          40.079          43.747          95.184         366.295         416.648         448.607         468.689         558.865         688.096         737.917         799.762         845.238
   17          42.763          46.657         101.493         367.128         416.886         448.824         467.808         558.748         688.594         737.518         799.198         844.971
   18          45.451          49.565         107.794         367.969         417.174         449.056         466.874         558.625         689.120         737.092         798.598         844.687
   19          48.140          52.471         114.088         368.809         417.518         449.301         465.889         558.494         689.674         736.638         797.962         844.387
   20          50.832          55.377         120.374         369.639         417.927         449.559         464.854         558.357         690.254         736.157         797.291         844.070
   21          53.527          58.280         126.652         370.448         418.409         449.831         463.768         558.213         690.861         735.648         796.584         843.736
   22          56.225          61.182         132.920         371.226         418.970         450.117         462.634         558.063         691.493         735.111         795.841         843.386
   23          58.927          64.082         139.179         371.963         419.621         450.415         461.451         557.907         692.149         734.545         795.063         843.019
   24          61.631          66.979         145.428         372.650         420.367         450.727         460.221         557.745         692.829         733.951         794.251         842.637
   25          64.338          69.875         151.667         373.276         421.216         451.052         458.945         557.576         693.533         733.328         793.403         842.237
   26          67.049          72.769         157.894         373.834         422.173         451.390         457.623         557.403         694.259         732.675         792.520         841.822
   27          69.763          75.660         164.110         374.318         423.244         451.740         456.256         557.223         695.006         731.993         791.602         841.391
   28          72.481          78.549         170.314         374.719         424.431         452.104         454.845         557.039         695.775         731.281         790.650         840.944
   29          75.203          81.436         176.505         375.036         425.738         452.480         453.392         556.850         696.563         730.538         789.664         840.481
   30          77.928          84.320         182.684         375.264         427.163         451.897         452.868         556.657         697.372         729.764         788.644         840.002
   31          80.658          87.201         188.849         375.403         428.706         450.360         453.269         556.459         698.199         728.959         787.589         839.508
   32          83.391          90.079         195.000         375.452         430.364         448.783         453.682         556.258         699.045         728.121         786.501         838.998
   33          86.128          92.955         201.137         375.413         432.133         447.166         454.107         556.054         699.908         727.252         785.380         838.473
   34          88.870          95.827         207.258         375.287         434.009         445.511         454.544         555.847         700.788         726.350         784.225         837.933
   35          91.615          98.696         213.364         375.078         435.986         443.818         454.993         555.638         701.684         725.415         783.038         837.378
   36          94.365         101.562         219.453         374.788         438.059         442.088         455.454         555.427         702.595         724.446         781.818         836.808
   37          97.119         104.425         225.526         374.421         440.221         440.322         455.926         555.216         703.522         723.443         780.566         836.223
   38          99.877         107.284         231.582         373.982         438.520         442.465         456.409         555.005         704.463         722.405         779.281         835.623
   39         102.640         110.139         237.620         373.473         436.684         444.785         456.904         554.795         705.418         721.332         777.965         835.010
   40         105.407         112.990         243.639         372.898         434.814         447.175         457.409         554.587         706.386         720.224         776.617         834.381
   41         108.179         115.838         249.639         372.261         432.911         449.628         457.926         554.381         707.367         719.078         775.239         833.739
   42         110.955         118.681         255.620         371.565         430.976         452.138         458.453         554.180         708.360         717.896         773.829         833.082
   43         113.736         121.520         261.580         370.813         429.009         454.698         458.990         553.985         709.364         716.676         772.390         832.412
   44         116.521         124.355         267.519         370.008         427.012         457.302         459.538         553.797         710.380         715.419         770.920         831.728
   45         119.311         127.185         273.437         369.154         424.984         459.944         460.096         553.617         711.406         714.122         769.421         831.031
   46         122.105         130.011         279.332         368.252         422.927         460.663         462.618         553.449         712.443         712.786         767.893         830.320
   47         124.904         132.832         285.203         367.305         420.841         461.241         465.318         553.294         711.410         713.489         766.336         829.595
   48         127.708         135.648         291.051         366.315         418.727         461.827         468.037         553.155         709.994         714.544         764.750         828.858
   49         130.516         138.458         296.873         365.286         416.586         462.423         470.770         553.034         708.536         715.608         763.137         828.108
   50         133.329         141.264         302.669         364.218         414.418         463.028         473.510         552.935         707.037         716.681         761.496         827.346
   51         136.146         144.064         308.436         363.114         412.224         463.642         476.250         552.863         705.495         717.762         759.828         826.570
   52         138.968         146.858         314.174         361.978         410.004         464.264         478.983         552.820         703.910         718.850         758.133         825.783
   53         141.794         149.647         319.877         360.813         407.760         464.895         481.702         552.813         702.281         719.945         756.412         824.983
   54         144.624         152.430         325.543         359.625         405.491         465.533         484.398         552.846         700.608         721.048         754.665         824.171
   55         147.459         155.207         331.160         358.423         403.199         466.180         487.063         552.926         698.890         722.157         752.893         823.348
   56         150.298         157.978         336.708         357.229         400.883         466.834         489.688         553.060         697.127         723.272         751.096         822.513
   57         153.142         160.742         342.127         356.104         398.545         467.495         492.263         553.257         695.318         724.393         749.275         821.666
   58         155.990         163.500         347.165         355.298         396.185         468.163         494.776         553.525         693.462         725.520         747.429         820.808
   59         158.842         166.251         350.422         356.211         393.804         468.838         497.218         553.874         691.559         726.652         745.560         819.939
   60         161.697         168.995         350.436         360.306         391.401         469.519         499.575         554.314         689.608         727.789         743.667         819.060
   61         164.557         171.732         349.369         365.422         388.979         470.206         501.836         554.857         687.609         728.931         741.751         818.169
   62         167.421         174.462         348.051         370.726         386.536         470.899         503.988         555.514         685.562         730.077         739.813         817.269
   63         170.289         177.184         346.633         376.067         384.074         471.598         506.019         556.296         683.466         731.228         737.853         816.357
   64         173.160         179.899         345.156         381.405         381.594         472.302         507.918         557.213         681.320         732.382         735.870         815.436
   65         176.035         182.606         343.635         379.095         386.722         473.011         509.676         558.273         679.125         733.540         733.867         814.505
   66         178.913         185.305         342.078         376.578         392.009         473.724         511.286         559.484         676.880         731.841         734.702         813.564
   67         181.795         187.996         340.490         374.044         397.263         474.441         512.745         560.848         674.585         729.795         735.867         812.614
   68         184.680         190.678         338.872         371.493         402.478         475.163         514.052         562.365         672.239         727.728         737.034         811.654
   69         187.568         193.352         337.227         368.926         407.652         475.887         515.210         564.035         669.842         725.640         738.205         810.685
   70         190.459         196.018         335.555         366.342         412.782         476.615         516.225         565.849         667.395         723.532         739.378         809.707
   71         193.353         198.674         333.858         363.743         417.864         477.346         517.108         567.800         664.896         721.404         740.554         808.721
   72         196.249         201.322         332.136         361.129         422.895         478.078         517.870         569.879         662.347         719.255         741.731         807.726
   73         199.148         203.960         330.390         358.500         427.870         478.813         518.524         572.073         659.747         717.087         742.911         806.722
   74         202.050         206.589         328.621         355.858         432.787         479.549         519.085         574.371         657.096         714.898         744.092         805.711
   75         204.954         209.208         326.828         353.201         437.639         480.286         519.568         576.762         654.394         712.690         745.275         804.691
   76         207.859         211.817         325.013         350.531         442.420         481.023         519.990         579.233         651.642         710.462         746.459         803.664
   77         210.767         214.416         323.176         347.848         447.124         481.760         520.367         581.774         648.839         708.215         747.645         802.629
   78         213.676         217.005         321.317         345.152         451.740         482.497         520.717         584.375         645.986         705.947         748.832         801.587
   79         216.587         219.583         319.436         342.445         456.259         483.232         521.059         587.027         643.083         703.660         750.019         800.538
   80         219.499         222.151         317.535         339.725         460.666         483.966         521.413         589.722         640.131         701.354         751.207         799.481
   81         222.412         224.707         315.613         336.995         464.945         484.697         521.802         592.453         637.130         699.028         752.396         798.418
   82         225.326         227.253         313.670         334.253         469.076         485.425         522.252         595.213         634.081         696.682         753.584         797.348
   83         228.241         229.788         311.707         331.501         473.032         486.150         522.793         597.997         630.984         694.317         754.773         796.272
   84         231.156         232.311         309.724         328.738         476.786         486.869         523.459         600.800         627.839         691.931         755.962         795.189
   85         234.071         234.822         307.722         325.966         480.301         487.584         524.287         603.616         624.648         689.527         757.151         794.101
   86         236.987         237.321         305.701         323.184         483.540         488.292         525.319         606.444         621.412         687.102         758.340         793.006
   87         239.809         239.902         303.660         320.393         486.465         488.993         526.596         609.278         618.130         684.658         759.528         791.906
   88         242.284         242.817         301.601         317.594         489.044         489.685         528.152         612.116         614.805         682.195         760.715         790.801
   89         244.746         245.732         299.524         314.786         490.367         491.254         530.011         611.438         614.954         679.712         761.901         789.690
   90         247.196         248.645         297.428         311.970         491.039         493.092         532.179         608.029         617.792         677.209         763.087         788.574
   91         249.633         251.558         295.314         309.146         491.697         494.570         534.646         604.580         620.626         674.687         764.271         787.453
   92         252.057         254.468         293.182         306.315         492.342         495.715         537.384         601.093         623.454         672.146         765.454         786.328
   93         254.467         257.378         291.033         303.477         492.970         496.567         540.357         597.570         626.276         669.585         766.635         785.197
   94         256.864         260.285         288.867         300.633         493.579         497.165         543.524         594.012         629.089         667.006         767.815         784.063
   95         259.246         263.190         286.684         297.782         494.168         497.550         546.847         590.423         631.891         664.408         768.993         782.924
   96         261.615         266.093         284.484         294.925         494.732         497.758         550.290         586.805         634.683         661.791         770.169         781.781
   97         263.970         268.993         282.268         292.062         495.269         497.819         553.824         583.162         637.462         659.155         771.342         780.634
   98         266.310         271.890         280.035         289.194         495.773         497.759         557.423         579.498         640.228         656.502         772.514         779.484
   99         268.636         274.784         277.786         286.321         496.241         497.599         561.068         575.817         642.980         653.831         773.683         778.330
  100         270.946         275.522         277.675         283.443         496.665         497.354         564.741         572.126         645.717         651.143         774.849         777.173
  101         273.242         273.242         280.561         280.561         497.039         497.039         568.431         568.431         648.438         648.438         776.012         776.012
  102         273.253         273.253         280.586         280.586         497.035         497.035         568.452         568.452         648.398         648.398         776.029         776.029
  103         273.288         273.288         280.661         280.661         497.023         497.023         568.514         568.514         648.278         648.278         776.079         776.079
  104         273.347         273.347         280.786         280.786         497.002         497.002         568.618         568.618         648.078         648.078         776.162         776.162
  105         273.429         273.429         280.959         280.959         496.973         496.973         568.763         568.763         647.800         647.800         776.277         776.277
  106         273.536         273.536         281.182         281.182         496.935         496.935         568.951         568.951         647.442         647.442         776.425         776.425
  107         273.667         273.667         281.452         281.452         496.888         496.888         569.181         569.181         647.008         647.008         776.603         776.603
  108         273.823         273.823         281.769         281.769         496.830         496.830         569.454         569.454         646.496         646.496         776.811         776.811
  109         274.006         274.006         282.133         282.133         496.762         496.762         569.770         569.770         645.910         645.910         777.047         777.047
  110         274.214         274.214         282.542         282.542         496.682         496.682         570.130         570.130         645.249         645.249         777.312         777.312
  111         274.450         274.450         282.995         282.995         496.590         496.590         570.534         570.534         644.516         644.516         777.602         777.602
  112         274.713         274.713         283.491         283.491         496.485         496.485         570.984         570.984         643.712         643.712         777.916         777.916
  113         275.004         275.004         284.029         284.029         496.366         496.366         571.479         571.479         642.838         642.838         778.254         778.254
  114         275.323         275.323         284.609         284.609         496.232         496.232         572.020         572.020         641.897         641.897         778.612         778.612
  115         275.670         275.670         285.229         285.229         496.082         496.082         572.608         572.608         640.891         640.891         778.989         778.989
  116         276.046         276.046         285.888         285.888         495.914         495.914         573.244         573.244         639.820         639.820         779.384         779.384
  117         276.452         276.452         286.585         286.585         495.729         495.729         573.927         573.927         638.688         638.688         779.795         779.795
  118         276.886         276.886         287.321         287.321         495.525         495.525         574.659         574.659         637.495         637.495         780.219         780.219
  119         277.350         277.350         288.092         288.092         495.301         495.301         575.440         575.440         636.245         636.245         780.654         780.654
  120         277.843         277.843         288.900         288.900         495.056         495.056         576.271         576.271         634.938         634.938         781.100         781.100
  121         278.365         278.365         289.743         289.743         494.789         494.789         577.151         577.151         633.577         633.577         781.553         781.553
  122         278.916         278.916         290.620         290.620         494.500         494.500         578.081         578.081         632.164         632.164         782.012         782.012
  123         279.496         279.496         291.530         291.530         494.187         494.187         579.062         579.062         630.700         630.700         782.476         782.476
  124         280.105         280.105         292.474         292.474         493.851         493.851         580.093         580.093         629.189         629.189         782.942         782.942
  125         280.743         280.743         293.449         293.449         493.490         493.490         581.174         581.174         627.630         627.630         783.408         783.408
  126         281.409         281.409         294.456         294.456         493.103         493.103         582.305         582.305         626.027         626.027         783.873         783.873
  127         282.103         282.103         295.493         295.493         492.691         492.691         583.486         583.486         624.381         624.381         784.336         784.336
  128         282.825         282.825         296.560         296.560         492.252         492.252         584.717         584.717         622.694         622.694         784.794         784.794
  129         283.574         283.574         297.657         297.657         491.787         491.787         585.997         585.997         620.968         620.968         785.245         785.245
  130         284.351         284.351         298.782         298.782         491.295         491.295         587.325         587.325         619.204         619.204         785.690         785.690
  131         285.154         285.154         299.936         299.936         490.776         490.776         588.702         588.702         617.404         617.404         786.125         786.125
  132         285.983         285.983         301.117         301.117         490.230         490.230         590.124         590.124         615.571         615.571         786.549         786.549
  133         286.838         286.838         302.325         302.325         489.657         489.657         591.592         591.592         613.706         613.706         786.961         786.961
  134         287.719         287.719         303.559         303.559         489.057         489.057         593.103         593.103         611.812         611.812         787.361         787.361
  135         288.625         288.625         304.818         304.818         488.430         488.430         594.653         594.653         609.894         609.894         787.745         787.745
  136         289.555         289.555         306.103         306.103         487.776         487.776         596.236         596.236         607.958         607.958         788.114         788.114
  137         290.510         290.510         307.413         307.413         487.095         487.095         597.834         597.834         606.023         606.023         788.466         788.466
  138         291.488         291.488         308.746         308.746         486.387         486.387         599.378         599.378         604.157         604.157         788.800         788.800
  139         292.489         292.489         310.103         310.103         485.653         485.653         600.358         600.358         602.871         602.871         789.114         789.114
  140         293.513         293.513         311.483         311.483         484.894         484.894         599.289         599.289         603.650         603.650         789.408         789.408
  141         294.559         294.559         312.885         312.885         484.109         484.109         597.381         597.381         605.282         605.282         789.681         789.681
  142         295.627         295.627         314.309         314.309         483.299         483.299         595.329         595.329         607.075         607.075         789.932         789.932
  143         296.717         296.717         315.754         315.754         482.464         482.464         593.221         593.221         608.939         608.939         790.160         790.160
  144         297.827         297.827         317.220         317.220         481.605         481.605         591.079         591.079         610.852         610.852         790.364         790.364
  145         298.957         298.957         318.706         318.706         480.723         480.723         588.910         588.910         612.807         612.807         790.543         790.543
  146         300.107         300.107         320.212         320.212         479.817         479.817         586.719         586.719         614.798         614.798         790.696         790.696
  147         301.276         301.276         321.737         321.737         478.889         478.889         584.507         584.507         616.824         616.824         790.823         790.823
  148         302.465         302.465         323.280         323.280         477.939         477.939         582.276         582.276         618.882         618.882         790.923         790.923
  149         303.671         303.671         324.842         324.842         476.968         476.968         580.028         580.028         620.969         620.969         790.996         790.996
  150         304.896         304.896         326.421         326.421         475.977         475.977         577.764         577.764         623.085         623.085         791.040         791.040
  151         306.138         306.138         328.017         328.017         474.965         474.965         575.485         575.485         625.227         625.227         791.055         791.055
  152         307.397         307.397         329.629         329.629         473.935         473.935         573.192         573.192         627.395         627.395         791.040         791.040
  153         308.672         308.672         331.257         331.257         472.886         472.886         570.885         570.885         629.587         629.587         790.995         790.995
  154         309.963         309.963         332.900         332.900         471.819         471.819         568.566         568.566         631.800         631.800         790.919         790.919
  155         311.270         311.270         334.558         334.558         470.736         470.736         566.235         566.235         634.034         634.034         790.812         790.812
  156         312.592         312.592         336.230         336.230         469.637         469.637         563.893         563.893         636.288         636.288         790.674         790.674
  157         313.928         313.928         337.915         337.915         468.522         468.522         561.541         561.541         638.559         638.559         790.503         790.503
  158         315.279         315.279         339.612         339.612         467.394         467.394         559.179         559.179         640.847         640.847         790.300         790.300
  159         316.643         316.643         341.321         341.321         466.252         466.252         556.808         556.808         643.150         643.150         790.064         790.064
  160         318.020         318.020         343.041         343.041         465.098         465.098         554.429         554.429         645.466         645.466         789.795         789.795
  161         319.410         319.410         344.771         344.771         463.932         463.932         552.043         552.043         647.795         647.795         789.491         789.491
  162         320.812         320.812         346.510         346.510         462.757         462.757         549.650         549.650         650.135         650.135         789.154         789.154
  163         322.226         322.226         348.257         348.257         461.573         461.573         547.251         547.251         652.484         652.484         788.783         788.783
  164         323.651         323.651         350.011         350.011         460.381         460.381         544.845         544.845         654.842         654.842         788.377         788.377
  165         325.087         325.087         351.771         351.771         459.183         459.183         542.435         542.435         657.206         657.206         787.936         787.936
  166         326.534         326.534         353.536         353.536         457.981         457.981         540.021         540.021         659.576         659.576         787.460         787.460
  167         327.990         327.990         355.303         355.303         456.776         456.776         537.603         537.603         661.951         661.951         786.949         786.949
  168         329.455         329.455         357.073         357.073         455.569         455.569         535.181         535.181         664.329         664.329         786.402         786.402
  169         330.930         330.930         358.842         358.842         454.363         454.363         532.757         532.757         666.709         666.709         785.820         785.820
  170         332.412         332.412         360.609         360.609         453.160         453.160         530.332         530.332         669.089         669.089         785.202         785.202
  171         333.903         333.903         362.373         362.373         451.962         451.962         527.904         527.904         671.469         671.469         784.548         784.548
  172         335.401         335.401         364.129         364.129         450.772         450.772         525.476         525.476         673.847         673.847         783.858         783.858
  173         336.905         336.905         365.876         365.876         449.593         449.593         523.048         523.048         676.222         676.222         783.132         783.132
  174         338.416         338.416         367.611         367.611         448.428         448.428         520.621         520.621         678.594         678.594         782.369         782.369
  175         339.933         339.933         369.330         369.330         447.280         447.280         518.194         518.194         680.960         680.960         781.571         781.571
  176         341.455         341.455         371.028         371.028         446.155         446.155         515.769         515.769         683.320         683.320         780.736         780.736
  177         342.981         342.981         372.703         372.703         445.057         445.057         513.347         513.347         685.673         685.673         779.864         779.864
  178         344.511         344.511         374.347         374.347         443.990         443.990         510.928         510.928         688.018         688.018         778.956         778.956
  179         346.044         346.044         375.956         375.956         442.962         442.962         508.512         508.512         690.353         690.353         778.012         778.012
  180         347.580         347.580         377.523         377.523         441.979         441.979         506.101         506.101         692.677         692.677         777.032         777.032
  181         349.118         349.118         379.039         379.039         441.050         441.050         503.695         503.695         694.990         694.990         776.016         776.016
  182         350.657         350.657         380.497         380.497         440.182         440.182         501.295         501.295         697.291         697.291         774.963         774.963
  183         352.197         352.197         381.887         381.887         439.386         439.386         498.902         498.902         699.579         699.579         773.874         773.874
  184         353.735         353.735         383.198         383.198         438.672         438.672         496.517         496.517         701.852         701.852         772.750         772.750
  185         355.273         355.273         384.419         384.419         438.052         438.052         494.140         494.140         704.110         704.110         771.589         771.589
  186         356.808         356.808         385.537         385.537         437.538         437.538         491.772         491.772         706.352         706.352         770.393         770.393
  187         358.341         358.341         386.541         386.541         437.143         437.143         489.415         489.415         708.576         708.576         769.162         769.162
  188         359.868         359.868         387.418         387.418         436.879         436.879         487.070         487.070         710.783         710.783         767.895         767.895
  189         361.391         361.391         388.157         388.157         436.758         436.758         484.737         484.737         712.972         712.972         766.593         766.593
  190         362.906         362.906         388.748         388.748         436.790         436.790         482.418         482.418         715.140         715.140         765.256         765.256
  191         364.414         364.414         389.184         389.184         436.981         436.981         480.114         480.114         717.289         717.289         763.885         763.885
  192         365.912         365.912         389.460         389.460         437.337         437.337         477.827         477.827         719.416         719.416         762.479         762.479
  193         367.398         367.398         389.575         389.575         437.859         437.859         475.558         475.558         721.522         721.522         761.039         761.039
  194         368.872         368.872         389.532         389.532         438.544         438.544         473.309         473.309         723.605         723.605         759.565         759.565
  195         370.331         370.331         389.335         389.335         439.388         439.388         471.083         471.083         725.664         725.664         758.058         758.058
  196         371.772         371.772         388.993         388.993         440.383         440.383         468.881         468.881         727.700         727.700         756.517         756.517
  197         373.193         373.193         388.516         388.516         441.519         441.519         466.705         466.705         729.711         729.711         754.944         754.944
  198         374.592         374.592         387.914         387.914         442.785         442.785         464.559         464.559         731.697         731.697         753.338         753.338
  199         375.965         375.965         387.199         387.199         444.170         444.170         462.446         462.446         733.656         733.656         751.700         751.700
  200         377.309         377.309         386.382         386.382         445.663         445.663         460.369         460.369         735.589         735.589         750.031         750.031
  201         378.619         378.619         385.474         385.474         447.253         447.253         458.332         458.332         737.495         737.495         748.330         748.330
  202         379.891         379.891         384.485         384.485         448.930         448.930         456.340         456.340         739.374         739.374         746.598         746.598
  203         381.120         381.120         383.424         383.424         450.686         450.686         454.397         454.397         741.224         741.224         744.836         744.836
  204         382.300         382.300         382.300         382.300         452.510         452.510         452.510         452.510         743.045         743.045         743.045         743.045
  205         381.279         381.279         383.288         383.288         451.529         451.529         453.506         453.506         741.004         741.004         745.080         745.080
  206         380.228         380.228         384.240         384.240         450.563         450.563         454.513         454.513         738.959         738.959         747.108         747.108
  207         379.150         379.150         385.153         385.153         449.616         449.616         455.529         455.529         736.910         736.910         749.129         749.129
  208         378.047         378.047         386.022         386.022         448.691         448.691         456.554         456.554         734.859         734.859         751.142         751.142
  209         376.922         376.922         386.844         386.844         447.790         447.790         457.586         457.586         732.805         732.805         753.146         753.146
  210         375.776         375.776         387.614         387.614         446.917         446.917         458.624         458.624         730.751         730.751         755.139         755.139
  211         374.612         374.612         388.327         388.327         446.077         446.077         459.666         459.666         728.697         728.697         757.123         757.123
  212         373.431         373.431         388.978         388.978         445.273         445.273         460.711         460.711         726.645         726.645         759.094         759.094
  213         372.234         372.234         389.562         389.562         444.510         444.510         461.759         461.759         724.594         724.594         761.054         761.054
  214         371.025         371.025         390.074         390.074         443.792         443.792         462.810         462.810         722.547         722.547         763.000         763.000
  215         369.803         369.803         390.506         390.506         443.124         443.124         463.861         463.861         720.505         720.505         764.933         764.933
  216         368.570         368.570         390.855         390.855         442.511         442.511         464.913         464.913         718.468         718.468         766.851         766.851
  217         367.327         367.327         391.113         391.113         441.958         441.958         465.965         465.965         716.438         716.438         768.755         768.755
  218         366.076         366.076         391.276         391.276         441.470         441.470         467.018         467.018         714.415         714.415         770.643         770.643
  219         364.817         364.817         391.339         391.339         441.050         441.050         468.069         468.069         712.401         712.401         772.514         772.514
  220         363.552         363.552         391.297         391.297         440.701         440.701         469.119         469.119         710.397         710.397         774.369         774.369
  221         362.281         362.281         391.147         391.147         440.428         440.428         470.168         470.168         708.403         708.403         776.206         776.206
  222         361.005         361.005         390.886         390.886         440.230         440.230         471.216         471.216         706.422         706.422         778.026         778.026
  223         359.726         359.726         390.513         390.513         440.110         440.110         472.261         472.261         704.453         704.453         779.827         779.827
  224         358.444         358.444         390.026         390.026         440.067         440.067         473.305         473.305         702.499         702.499         781.609         781.609
  225         357.160         357.160         389.427         389.427         440.099         440.099         474.346         474.346         700.560         700.560         783.372         783.372
  226         355.875         355.875         388.717         388.717         440.205         440.205         475.384         475.384         698.637         698.637         785.115         785.115
  227         354.588         354.588         387.899         387.899         440.382         440.382         476.419         476.419         696.731         696.731         786.837         786.837
  228         353.302         353.302         386.975         386.975         440.625         440.625         477.452         477.452         694.843         694.843         788.539         788.539
  229         352.017         352.017         385.949         385.949         440.930         440.930         478.481         478.481         692.974         692.974         790.220         790.220
  230         350.733         350.733         384.826         384.826         441.293         441.293         479.506         479.506         691.126         691.126         791.880         791.880
  231         349.451         349.451         383.608         383.608         441.710         441.710         480.528         480.528         689.298         689.298         793.518         793.518
  232         348.172         348.172         382.302         382.302         442.175         442.175         481.546         481.546         687.492         687.492         795.134         795.134
  233         346.896         346.896         380.911         380.911         442.683         442.683         482.560         482.560         685.709         685.709         796.728         796.728
  234         345.624         345.624         379.439         379.439         443.231         443.231         483.570         483.570         683.949         683.949         798.299         798.299
  235         344.356         344.356         377.891         377.891         443.813         443.813         484.575         484.575         682.214         682.214         799.847         799.847
  236         343.093         343.093         376.271         376.271         444.426         444.426         485.575         485.575         680.504         680.504         801.372         801.372
  237         341.836         341.836         374.581         374.581         445.065         445.065         486.571         486.571         678.820         678.820         802.874         802.874
  238         340.585         340.585         372.827         372.827         445.728         445.728         487.561         487.561         677.162         677.162         804.352         804.352
  239         339.341         339.341         371.010         371.010         446.410         446.410         488.546         488.546         675.532         675.532         805.807         805.807
  240         338.104         338.104         369.135         369.135         447.110         447.110         489.526         489.526         673.929         673.929         807.238         807.238
  241         336.874         336.874         367.204         367.204         447.823         447.823         490.499         490.499         672.354         672.354         808.645         808.645
  242         335.653         335.653         365.221         365.221         448.548         448.548         491.467         491.467         670.809         670.809         810.028         810.028
  243         334.440         334.440         363.187         363.187         449.282         449.282         492.428         492.428         669.292         669.292         811.386         811.386
  244         333.236         333.236         361.105         361.105         450.023         450.023         493.382         493.382         667.805         667.805         812.721         812.721
  245         332.042         332.042         358.979         358.979         450.770         450.770         494.330         494.330         666.348         666.348         814.031         814.031
  246         330.858         330.858         356.809         356.809         451.519         451.519         495.270         495.270         664.922         664.922         815.316         815.316
  247         329.685         329.685         354.599         354.599         452.271         452.271         496.203         496.203         663.526         663.526         816.577         816.577
  248         328.523         328.523         352.351         352.351         453.023         453.023         497.129         497.129         662.161         662.161         817.814         817.814
  249         327.372         327.372         350.067         350.067         453.774         453.774         498.046         498.046         660.827         660.827         819.025         819.025
  250         326.233         326.233         347.749         347.749         454.523         454.523         498.955         498.955         659.525         659.525         820.213         820.213
  251         325.107         325.107         345.399         345.399         455.269         455.269         499.855         499.855         658.253         658.253         821.376         821.376
  252         323.993         323.993         343.020         343.020         456.010         456.010         500.747         500.747         657.013         657.013         822.514         822.514
  253         322.893         322.893         340.614         340.614         456.746         456.746         501.629         501.629         655.805         655.805         823.628         823.628
  254         321.806         321.806         338.183         338.183         457.476         457.476         502.501         502.501         654.627         654.627         824.717         824.717
  255         320.733         320.733         335.729         335.729         458.199         458.199         503.364         503.364         653.481         653.481         825.781         825.781
  256         319.675         319.675         333.255         333.255         458.915         458.915         504.217         504.217         652.366         652.366         826.822         826.822
  257         318.632         318.632         330.763         330.763         459.623         459.623         505.059         505.059         651.283         651.283         827.838         827.838
  258         317.604         317.604         328.256         328.256         460.321         460.321         505.890         505.890         650.230         650.230         828.830         828.830
  259         316.592         316.592         325.735         325.735         461.010         461.010         506.710         506.710         649.207         649.207         829.797         829.797
  260         315.596         315.596         323.203         323.203         461.689         461.689         507.518         507.518         648.215         648.215         830.741         830.741
  261         314.616         314.616         320.663         320.663         462.358         462.358         508.314         508.314         647.253         647.253         831.660         831.660
  262         313.653         313.653         318.118         318.118         463.016         463.016         509.099         509.099         646.322         646.322         832.556         832.556
  263         312.708         312.708         315.569         315.569         463.662         463.662         509.870         509.870         645.419         645.419         833.428         833.428
  264         311.780         311.780         313.021         313.021         464.297         464.297         510.629         510.629         644.546         644.546         834.276         834.276
  265         310.474         310.474         310.869         310.869         464.920         464.920         511.374         511.374         643.702         643.702         835.101         835.101
  266         307.933         307.933         309.978         309.978         465.530         465.530         512.106         512.106         642.886         642.886         835.902         835.902
  267         305.401         305.401         309.104         309.104         466.127         466.127         512.824         512.824         642.099         642.099         836.680         836.680
  268         302.879         302.879         308.250         308.250         466.711         466.711         513.528         513.528         641.339         641.339         837.435         837.435
  269         300.372         300.372         307.415         307.415         467.282         467.282         514.217         514.217         640.607         640.607         838.167         838.167
  270         297.881         297.881         306.600         306.600         467.839         467.839         514.891         514.891         639.901         639.901         838.876         838.876
  271         295.411         295.411         305.805         305.805         468.382         468.382         515.549         515.549         639.222         639.222         839.562         839.562
  272         292.965         292.965         305.030         305.030         468.912         468.912         516.192         516.192         638.569         638.569         840.226         840.226
  273         290.545         290.545         304.275         304.275         469.426         469.426         516.820         516.820         637.942         637.942         840.867         840.867
  274         288.155         288.155         303.542         303.542         469.927         469.927         517.430         517.430         637.339         637.339         841.486         841.486
  275         285.798         285.798         302.829         302.829         470.412         470.412         518.025         518.025         636.762         636.762         842.083         842.083
  276         283.478         283.478         302.138         302.138         470.882         470.882         518.602         518.602         636.209         636.209         842.658         842.658
  277         281.198         281.198         301.469         301.469         471.338         471.338         519.162         519.162         635.680         635.680         843.212         843.212
  278         278.961         278.961         300.821         300.821         471.778         471.778         519.705         519.705         635.174         635.174         843.743         843.743
  279         276.770         276.770         300.196         300.196         472.202         472.202         520.229         520.229         634.691         634.691         844.253         844.253
  280         274.630         274.630         299.593         299.593         472.611         472.611         520.736         520.736         634.231         634.231         844.742         844.742
  281         272.544         272.544         299.013         299.013         473.004         473.004         521.224         521.224         633.794         633.794         845.210         845.210
  282         270.515         270.515         298.456         298.456         473.382         473.382         521.694         521.694         633.378         633.378         845.656         845.656
  283         268.546         268.546         297.922         297.922         473.743         473.743         522.145         522.145         632.983         632.983         846.082         846.082
  284         266.641         266.641         297.412         297.412         474.088         474.088         522.576         522.576         632.609         632.609         846.486         846.486
  285         264.804         264.804         296.925         296.925         474.417         474.417         522.989         522.989         632.257         632.257         846.870         846.870
  286         263.037         263.037         296.462         296.462         474.730         474.730         523.381         523.381         631.924         631.924         847.234         847.234
  287         261.344         261.344         296.023         296.023         475.027         475.027         523.754         523.754         631.612         631.612         847.577         847.577
  288         259.728         259.728         295.608         295.608         475.306         475.306         524.106         524.106         631.319         631.319         847.900         847.900
  289         258.192         258.192         295.217         295.217         475.570         475.570         524.439         524.439         631.045         631.045         848.202         848.202
  290         256.739         256.739         294.850         294.850         475.816         475.816         524.750         524.750         630.791         630.791         848.485         848.485
  291         255.373         255.373         294.509         294.509         476.046         476.046         525.041         525.041         630.555         630.555         848.747         848.747
  292         254.095         254.095         294.192         294.192         476.259         476.259         525.312         525.312         630.338         630.338         848.990         848.990
  293         252.909         252.909         293.900         293.900         476.456         476.456         525.561         525.561         630.139         630.139         849.213         849.213
  294         251.818         251.818         293.633         293.633         476.635         476.635         525.789         525.789         629.959         629.959         849.416         849.416
  295         250.822         250.822         293.391         293.391         476.798         476.798         525.996         525.996         629.796         629.796         849.600         849.600
  296         249.926         249.926         293.174         293.174         476.943         476.943         526.181         526.181         629.650         629.650         849.764         849.764
  297         249.130         249.130         292.982         292.982         477.072         477.072         526.345         526.345         629.523         629.523         849.909         849.909
  298         248.436         248.436         292.816         292.816         477.183         477.183         526.487         526.487         629.412         629.412         850.034         850.034
  299         247.847         247.847         292.676         292.676         477.277         477.277         526.607         526.607         629.319         629.319         850.140         850.140
  300         247.363         247.363         292.561         292.561         477.354         477.354         526.706         526.706         629.243         629.243         850.227         850.227
  301         246.985         246.985         292.471         292.471         477.414         477.414         526.783         526.783         629.184         629.184         850.294         850.294
  302         246.714         246.714         292.407         292.407         477.457         477.457         526.838         526.838         629.142         629.142         850.342         850.342
  303         246.552         246.552         292.368         292.368         477.483         477.483         526.871         526.871         629.116         629.116         850.371         850.371
  304         246.498         246.498         292.356         292.356         477.492         477.492         526.882         526.882         629.108         629.108         850.381         850.381
  305         244.693         248.285         289.909         294.787         476.467         478.512         525.162         528.621         624.895         633.290         849.971         850.761
  306         242.870         250.055         287.449         297.204         475.438         479.525         523.463         530.380         620.653         637.439         849.531         851.112
  307         241.031         251.806         284.974         299.605         474.407         480.531         521.786         532.157         616.383         641.556         849.063         851.434
  308         239.175         253.540         282.485         301.991         473.374         481.528         520.130         533.951         612.087         645.639         848.565         851.726
  309         237.302         255.254         279.982         304.362         472.340         482.513         518.497         535.763         607.766         649.687         848.037         851.990
  310         235.413         256.950         277.466         306.716         471.305         483.484         516.888         537.591         603.423         653.699         847.481         852.224
  311         233.507         258.627         274.937         309.055         470.272         484.440         515.303         539.434         599.060         657.675         846.895         852.430
  312         231.585         260.284         272.394         311.377         469.240         485.376         513.743         541.292         594.681         661.615         846.280         852.606
  313         229.647         261.921         269.839         313.684         468.210         486.290         512.209         543.164         590.290         665.517         845.635         852.754
  314         227.694         263.538         267.271         315.973         467.182         487.177         510.701         545.049         585.890         669.382         844.962         852.873
  315         225.725         264.690         265.135         318.246         466.158         488.031         509.219         546.946         581.487         673.208         844.260         852.964
  316         223.741         262.098         266.710         320.501         465.137         488.847         507.766         548.856         577.088         676.995         843.529         853.027
  317         221.742         259.493         268.265         322.740         464.121         489.617         506.340         550.776         572.701         680.744         842.770         853.062
  318         219.727         256.877         269.797         324.961         463.109         490.330         504.943         552.706         568.335         684.453         841.982         853.069
  319         217.698         254.250         271.307         327.165         462.103         490.976         503.576         554.646         564.004         688.122         841.167         853.048
  320         215.654         251.611         272.794         329.351         461.102         491.537         502.238         556.595         559.724         691.751         840.323         853.000
  321         213.595         248.961         274.257         331.519         460.107         491.995         500.931         555.513         558.552         695.340         839.452         852.925
  322         211.522         246.301         275.696         333.670         459.118         492.324         499.655         551.399         560.517         698.889         838.553         852.823
  323         209.435         243.630         277.110         335.802         458.136         492.492         498.410         547.414         562.488         702.396         837.627         852.695
  324         207.334         240.949         278.499         337.916         457.161         492.460         497.198         543.598         564.465         705.863         836.674         852.540
  325         205.219         238.257         279.861         340.012         456.194         492.178         496.017         540.000         566.447         709.288         835.695         852.360
  326         203.090         235.556         281.196         342.090         455.234         491.590         494.870         536.679         568.434         712.672         834.689         852.153
  327         200.948         232.845         282.502         344.149         454.283         490.637         493.755         533.694         570.425         716.015         833.658         851.922
  328         198.792         230.125         283.779         346.189         453.340         489.263         492.674         531.103         572.420         719.316         832.601         851.665
  329         196.623         227.396         285.025         348.211         452.406         487.428         491.627         528.945         574.417         722.575         831.519         851.384
  330         194.441         224.658         286.238         350.215         451.480         485.119         490.613         527.235         576.415         725.792         830.412         851.078
  331         192.246         221.911         287.419         352.199         450.564         482.353         489.634         525.958         578.416         728.967         829.281         850.748
  332         190.038         219.155         288.563         354.165         449.657         479.173         488.690         525.074         580.416         732.100         828.126         850.395
  333         187.818         216.391         289.671         356.113         448.761         475.634         487.779         524.527         582.417         735.190         826.948         850.019
  334         185.585         213.619         290.739         358.041         447.874         471.796         486.904         524.261         584.417         738.238         825.747         849.620
  335         183.340         210.839         291.765         359.951         446.997         467.717         486.063         524.221         586.416         741.244         824.524         849.199
  336         181.082         208.052         292.746         361.843         446.131         463.444         485.256         524.361         588.413         744.207         823.279         848.756
  337         178.813         205.257         293.680         363.716         445.275         459.018         484.484         524.643         590.408         747.128         822.013         848.291
  338         176.532         202.454         294.562         365.571         444.430         454.473         483.747         525.038         592.399         750.006         820.727         847.805
  339         174.239         199.645         295.388         367.407         443.596         449.838         483.044         525.522         594.387         752.842         819.420         847.299
  340         171.934         196.829         296.154         369.225         442.773         445.134         482.375         526.075         596.371         755.635         818.094         846.773
  341         169.618         194.006         296.855         371.025         440.383         441.962         481.739         526.684         598.349         758.385         816.749         846.227
  342         167.291         191.176         297.484         372.807         435.602         441.162         481.138         527.336         600.322         761.092         815.387         845.662
  343         164.953         188.340         298.034         374.571         430.808         440.374         480.569         528.023         602.289         763.757         814.007         845.078
  344         162.604         185.498         298.496         376.318         426.016         439.597         480.033         528.737         604.250         766.379         812.610         844.476
  345         160.244         182.650         298.862         378.047         421.242         438.832         479.529         529.473         606.203         768.958         811.198         843.857
  346         157.874         179.796         299.120         379.759         416.501         438.080         479.057         530.224         608.148         771.494         809.771         843.221
  347         155.493         176.937         299.258         381.454         411.811         437.339         478.616         530.988         610.085         773.988         808.329         842.568
  348         153.102         174.072         299.261         383.132         407.190         436.610         478.206         531.761         612.013         776.439         806.874         841.900
  349         150.701         171.201         299.113         384.793         402.656         435.894         477.825         532.539         613.931         778.847         805.407         841.216
  350         148.290         168.326         298.795         386.438         398.231         435.191         477.474         533.322         615.839         781.213         803.928         840.517
  351         145.869         165.446         298.288         388.067         393.937         434.499         477.151         534.105         617.737         783.536         802.438         839.805
  352         143.438         162.561         297.568         389.680         389.798         433.821         476.855         534.889         619.623         785.816         800.939         839.079
  353         140.999         159.671         296.614         385.839         391.277         433.155         476.586         535.671         621.497         788.054         799.430         838.340
  354         138.549         156.777         295.400         382.086         392.858         432.501         476.342         536.450         623.359         790.249         797.914         837.588
  355         136.091         153.879         293.906         378.561         394.424         431.860         476.123         537.224         625.208         792.402         796.392         836.826
  356         133.624         150.976         292.110         375.287         395.975         431.232         475.928         537.993         627.043         794.512         794.863         836.052
  357         131.148         148.070         289.996         372.280         397.511         430.617         475.756         538.756         628.865         793.330         796.579         835.268
  358         128.664         145.159         287.553         369.554         399.033         430.015         475.605         539.511         630.671         791.793         798.605         834.475
  359         126.171         142.245         284.776         367.114         400.539         429.425         475.474         540.259         632.462         790.254         800.588         833.672
  360         123.670         139.327         281.670         364.956         402.031         428.848         475.363         540.997         634.237         788.714         802.528         832.862
  361         121.161         136.406         278.242         363.074         403.509         428.285         475.271         541.727         635.995         787.174         804.427         832.045
  362         118.644         133.481         274.509         361.452         404.972         427.734         475.195         542.447         637.736         785.635         806.283         831.221
  363         116.119         130.553         270.489         360.072         406.422         427.196         475.136         543.156         639.459         784.098         808.097         830.391
  364         113.587         127.622         266.205         358.912         407.856         426.670         475.091         543.855         641.164         782.565         809.869         829.556
  365         111.047         124.688         261.680         357.950         409.277         426.158         475.060         544.542         642.849         781.037         811.600         828.717
  366         108.500         121.752         256.938         357.164         410.683         425.659         475.042         545.217         644.515         779.516         813.288         827.875
  367         105.946         118.812         252.001         356.531         412.074         425.172         475.034         545.881         646.159         778.002         814.934         827.030
  368         103.385         115.870         246.889         356.031         413.451         424.698         475.037         546.531         647.783         776.498         816.539         826.184
  369         100.818         112.926         241.621         355.648         414.813         424.237         475.048         547.169         649.384         775.003         818.102         825.337
  370          98.244         109.979         236.214         355.363         416.159         423.789         475.068         547.794         650.963         773.521         819.623         824.490
  371          95.663         107.029         230.684         355.163         417.491         423.354         475.094         548.405         652.518         772.053         821.103         823.645
  372          93.077         104.078         225.043         355.035         418.806         422.931         475.125         549.002         654.048         770.599         822.541         822.802
  373          90.484         101.125         219.303         354.969         420.105         422.521         475.161         549.585         655.553         769.161         821.962         823.937
  374          87.886          98.169         213.474         354.954         421.387         422.123         475.201         550.154         657.033         767.742         821.126         825.293
  375          85.282          95.212         207.566         354.983         421.738         422.652         475.242         550.708         658.485         766.342         820.296         826.607
  376          82.672          92.252         201.585         355.049         421.366         423.898         475.286         551.247         659.909         764.962         819.472         827.879
  377          80.058          89.291         195.538         355.144         421.006         425.126         475.329         551.771         661.305         763.606         818.656         829.111
  378          77.438          86.329         189.432         355.265         420.658         426.335         475.372         552.280         662.670         762.273         817.848         830.301
  379          74.813          83.365         183.273         355.405         420.323         427.523         475.414         552.773         664.005         760.967         817.050         831.451
  380          72.183          80.399         177.063         355.562         420.001         428.690         475.454         553.250         665.309         759.687         816.263         832.559
  381          69.549          77.432         170.809         355.731         419.690         429.835         475.491         553.712         666.579         758.437         815.489         833.626
  382          66.910          74.464         164.513         355.910         419.392         430.956         475.524         554.158         667.816         757.217         814.728         834.653
  383          64.267          71.494         158.179         356.096         419.106         432.053         475.554         554.587         669.017         756.029         813.981         835.639
  384          61.620          68.523         151.809         356.286         418.832         433.125         475.579         555.000         670.183         754.875         813.251         836.584
  385          58.969          65.551         145.407         356.478         418.570         434.170         475.599         555.397         671.311         753.756         812.538         837.488
  386          56.314          62.578         138.976         356.671         418.321         435.186         475.614         555.776         672.401         752.673         811.844         838.352
  387          53.656          59.604         132.516         356.862         418.083         436.173         475.624         556.139         673.451         751.630         811.170         839.175
  388          50.994          56.630         126.031         357.051         417.857         437.129         475.628         556.485         674.460         750.626         810.518         839.958
  389          48.329          53.654         119.523         357.236         417.643         438.052         475.626         556.814         675.428         749.663         809.888         840.700
  390          45.661          50.677         112.993         357.416         417.441         438.941         475.619         557.126         676.352         748.743         809.282         841.402
  391          42.990          47.700         106.442         357.591         417.251         439.793         475.607         557.421         677.231         747.867         808.702         842.063
  392          40.316          44.722          99.873         357.758         417.073         440.608         475.590         557.698         678.065         747.037         808.149         842.684
  393          37.640          41.743          93.288         357.917         416.906         441.383         475.569         557.958         678.852         746.253         807.624         843.265
  394          34.961          38.764          86.686         358.068         416.751         442.116         475.543         558.200         679.591         745.518         807.129         843.806
  395          32.280          35.784          80.070         358.210         416.607         442.806         475.514         558.425         680.280         744.832         806.664         844.306
  396          29.597          32.804          73.442         358.343         416.476         443.450         475.483         558.631         680.919         744.197         806.231         844.767
  397          26.913          29.823          66.801         358.465         416.355         444.047         475.450         558.821         681.507         743.613         805.832         845.187
  398          24.226          26.842          60.150         358.577         416.247         444.594         475.416         558.992         682.042         743.081         805.467         845.567
  399          21.538          23.860          53.490         358.679         416.150         445.090         475.382         559.145         682.524         742.603         805.137         845.907
  400          18.849          20.879          46.822         358.769         416.064         445.533         475.349         559.281         682.951         742.179         804.844         846.206
  401          16.158          17.896          40.146         358.847         415.990         445.921         475.319         559.398         683.323         741.810         804.588         846.466
  402          13.467          14.914          33.464         358.914         415.927         446.252         475.291         559.498         683.639         741.497         804.370         846.686
  403          10.775          11.932          26.777         358.969         415.876         446.525         475.266         559.579         683.898         741.240         804.190         846.866
  404           8.082           8.949          20.087         359.012         415.836         446.739         475.247         559.642         684.101         741.039         804.050         847.006
  405           5.388           5.966          13.393         359.042         415.807         446.892         475.232         559.688         684.245         740.896         803.950         847.106
  406           2.694           2.983           6.697         359.061         415.790         446.985         475.223         559.715         684.333         740.810         803.890         847.166
  407           0.000           0.000           0.000         359.067         415.785         447.015         475.220         559.724         684.362         740.781         803.869         847.186
  408           2.952           2.984           5.406         359.068         415.767         447.055         475.218         559.713         684.359         740.781         803.867         847.179
  409           5.904           5.969          10.812         359.071         415.715         447.174         475.212         559.680         684.350         740.783         803.859         847.159
  410           8.856           8.953          16.217         359.076         415.628         447.370         475.200         559.625         684.336         740.785         803.847         847.126
  411          11.809          11.937          21.621         359.083         415.510         447.643         475.185         559.548         684.316         740.787         803.829         847.080
  412          14.763          14.921          27.022         359.093         415.362         447.990         475.165         559.449         684.290         740.791         803.806         847.020
  413          17.718          17.905          32.420         359.104         415.186         448.408         475.141         559.328         684.258         740.795         803.778         846.947
  414          20.675          20.889          37.816         359.118         414.985         448.894         475.112         559.186         684.221         740.801         803.745         846.861
  415          23.632          23.872          43.208         359.134         414.763         449.445         475.079         559.021         684.178         740.806         803.707         846.761
  416          26.592          26.855          48.595         359.152         414.523         450.058         475.042         558.835         684.129         740.813         803.664         846.648
  417          29.554          29.837          53.978         359.172         414.267         450.729         475.000         558.628         684.075         740.821         803.616         846.522
  418          32.517          32.820          59.355         359.195         413.999         451.455         474.954         558.399         684.015         740.829         803.562         846.382
  419          35.483          35.801          64.727         359.220         413.722         452.232         474.904         558.150         683.950         740.838         803.503         846.230
  420          38.452          38.783          70.092         359.247         413.439         453.057         474.850         557.879         683.878         740.847         803.439         846.064
  421          41.423          41.763          75.451         359.277         413.152         453.928         474.791         557.587         683.802         740.857         803.370         845.884
  422          44.397          44.744          80.802         359.310         412.865         454.841         474.729         557.274         683.719         740.868         803.295         845.691
  423          47.374          47.723          86.145         359.345         412.578         455.793         474.662         556.941         683.632         740.879         803.215         845.485
  424          50.354          50.702          91.480         359.383         412.294         456.782         474.592         556.588         683.538         740.892         803.129         845.265
  425          53.337          53.680          96.806         359.424         412.016         457.806         474.518         556.215         683.440         740.904         803.038         845.032
  426          56.324          56.658         102.122         359.468         411.745         458.863         474.440         555.821         683.336         740.917         802.941         844.786
  427          59.314          59.634         107.429         359.515         411.482         459.950         474.358         555.409         683.226         740.931         802.838         844.526
  428          62.308          62.610         112.725         359.565         411.228         461.065         474.272         554.977         683.111         740.945         802.730         844.253
  429          65.306          65.585         118.010         359.618         410.985         462.208         474.183         554.525         682.991         740.959         802.616         843.966
  430          68.307          68.559         123.284         359.675         410.755         463.375         474.090         554.055         682.866         740.974         802.497         843.666
  431          71.313          71.532         128.545         359.735         410.537         464.566         473.994         553.567         682.736         740.990         802.371         843.352
  432          74.322          74.504         133.794         359.799         410.333         465.779         473.895         553.060         682.600         741.005         802.240         843.025
  433          77.335          77.475         139.031         359.866         410.143         467.012         473.792         552.535         682.459         741.021         802.102         842.685
  434          80.352          80.445         144.253         359.937         409.969         468.265         473.686         551.993         682.314         741.038         801.959         842.330
  435          83.374          83.414         149.462         360.012         409.809         469.536         473.577         551.434         682.163         741.054         801.809         841.962
  436          86.381          86.399         154.657         360.091         409.666         470.824         473.465         550.857         682.008         741.071         801.653         841.581
  437          89.347          89.428         159.836         360.175         409.540         472.128         473.350         550.264         681.847         741.087         801.491         841.186
  438          92.312          92.461         165.000         360.262         409.430         473.232         473.446         549.655         681.682         741.104         801.323         840.778
  439          95.276          95.498         170.148         360.354         409.337         473.112         474.778         549.030         681.512         741.121         801.148         840.355
  440          98.238          98.540         175.280         360.451         409.261         472.989         476.123         548.390         681.338         741.138         800.967         839.919
  441         101.198         101.584         180.395         360.552         409.202         472.863         477.480         547.735         681.158         741.155         800.779         839.470
  442         104.157         104.633         185.492         360.658         409.161         472.735         478.848         547.065         680.975         741.172         800.584         839.007
  443         107.115         107.685         190.572         360.770         409.138         472.605         480.226         546.380         680.787         741.188         800.383         838.530
  444         110.071         110.741         195.633         360.886         409.132         472.472         481.613         545.682         680.594         741.205         800.175         838.039
  445         113.025         113.800         200.676         361.008         409.143         472.338         483.009         544.971         680.397         741.221         799.960         837.535
  446         115.977         116.863         205.699         361.135         409.172         472.201         484.412         544.246         680.197         741.237         799.738         837.017
  447         118.927         119.928         210.703         361.267         409.218         472.063         485.822         543.509         679.991         741.252         799.509         836.485
  448         121.876         122.996         215.687         361.406         409.282         471.923         487.239         542.760         679.782         741.268         799.274         835.939
  449         124.822         126.067         220.650         361.550         409.363         471.781         488.660         542.000         679.569         741.282         799.031         835.380
  450         127.767         129.141         225.592         361.700         409.461         471.638         490.086         541.228         679.352         741.297         798.780         834.807
  451         130.709         132.217         230.513         361.856         409.576         471.493         491.516         540.445         679.132         741.310         798.523         834.219
  452         133.650         135.294         235.411         362.019         409.708         471.348         492.950         539.652         678.907         741.323         798.258         833.619
  453         136.588         138.374         240.288         362.188         409.856         471.201         494.386         538.850         678.679         741.336         797.986         833.004
  454         139.523         141.455         245.142         362.363         410.021         471.052         495.824         538.037         678.448         741.348         797.707         832.375
  455         142.457         144.537         249.972         362.546         410.202         470.903         497.263         537.216         678.213         741.359         797.420         831.733
  456         145.388         147.620         254.779         362.735         410.400         470.754         498.703         536.387         677.975         741.369         797.126         831.077
  457         148.316         150.704         259.562         362.931         410.613         470.603         500.143         535.550         677.733         741.378         796.824         830.407
  458         151.242         153.788         264.320         363.134         410.841         470.452         501.582         534.705         677.489         741.387         796.514         829.723
  459         154.165         156.871         269.054         363.345         411.086         470.301         503.020         533.853         677.241         741.395         796.197         829.025
  460         157.085         159.955         273.762         363.563         411.345         470.149         504.456         532.995         676.991         741.401         795.872         828.313
  461         160.002         163.037         278.445         363.789         411.619         469.996         505.890         532.131         676.738         741.406         795.539         827.588
  462         162.917         166.119         283.101         364.022         411.909         469.844         507.322         531.261         676.482         741.411         795.198         826.848
  463         165.828         169.199         287.731         364.263         412.212         469.692         508.749         530.386         676.224         741.414         794.850         826.095
  464         168.737         172.276         292.334         364.513         412.530         469.539         510.173         529.507         675.963         741.416         794.494         825.328
  465         171.642         175.352         296.910         364.770         412.862         469.387         511.592         528.623         675.701         741.417         794.130         824.547
  466         174.544         178.424         301.458         365.036         413.208         469.235         513.007         527.736         675.435         741.416         793.758         823.753
  467         177.443         181.494         305.978         365.310         413.567         469.084         514.415         526.845         675.168         741.414         793.378         822.944
  468         180.338         184.559         310.469         365.593         413.940         468.933         515.818         525.952         674.899         741.410         792.990         822.122
  469         183.229         187.621         314.932         365.885         414.326         468.782         517.214         525.056         674.628         741.405         792.595         821.286
  470         186.117         190.677         319.364         366.186         414.725         468.632         518.604         524.159         674.356         741.399         792.191         820.436
  471         189.001         193.729         323.767         366.496         415.136         468.483         519.985         523.260         674.082         741.391         791.780         819.573
  472         191.881         196.775         328.139         366.817         415.560         468.335         521.359         522.361         673.806         741.381         791.360         818.696
  473         194.757         199.815         332.480         367.147         415.996         468.187         521.460         522.725         673.529         741.370         790.933         817.805
  474         197.629         202.848         336.789         367.489         416.444         468.041         520.560         524.081         673.252         741.356         790.498         816.901
  475         200.497         205.874         341.064         367.842         416.904         467.895         519.660         525.429         672.973         741.341         790.055         815.983
  476         203.361         208.893         345.304         368.209         417.376         467.751         518.761         526.767         672.693         741.325         789.605         815.052
  477         206.220         211.903         349.506         368.592         417.859         467.608         517.862         528.094         672.413         741.306         789.146         814.107
  478         209.074         214.905         353.664         368.996         418.353         467.466         516.966         529.412         672.132         741.285         788.680         813.149
  479         211.924         217.897         357.768         369.432         418.858         467.325         516.071         530.718         671.851         741.263         788.206         812.177
  480         214.769         220.880         361.786         369.932         419.374         467.186         515.178         532.014         671.569         741.238         787.725         811.193
  481         217.609         223.852         365.605         370.608         419.901         467.048         514.288         533.298         671.288         741.212         787.236         810.194
  482         220.444         226.814         368.673         372.012         420.437         466.911         513.400         534.570         671.007         741.183         786.739         809.183
  483         223.274         229.765         370.128         375.006         420.984         466.776         512.516         535.830         670.725         741.152         786.235         808.159
  484         226.099         232.703         370.841         378.717         421.541         466.642         511.636         537.078         670.445         741.119         785.724         807.122
  485         228.918         235.630         371.391         382.569         422.108         466.510         510.759         538.312         670.165         741.084         785.205         806.071
  486         231.731         238.543         371.895         386.443         422.684         466.379         509.886         539.534         669.885         741.047         784.680         805.008
  487         234.538         241.443         372.386         390.307         423.269         466.250         509.017         540.743         669.607         741.007         784.147         803.932
  488         237.340         244.329         372.874         394.149         423.864         466.123         508.153         541.938         669.330         740.965         783.607         802.844
  489         240.135         247.200         373.365         397.963         424.467         465.997         507.294         543.119         669.054         740.920         783.060         801.743
  490         242.924         250.057         373.861         401.748         425.079         465.872         506.440         544.286         668.779         740.873         782.507         800.629
  491         245.707         252.898         374.364         405.501         425.699         465.749         505.590         545.439         668.506         740.824         781.947         799.503
  492         248.483         255.723         374.875         409.222         426.327         465.627         504.746         546.577         668.235         740.772         781.380         798.365
  493         251.253         258.532         375.395         412.909         426.964         465.507         503.908         547.701         667.966         740.718         780.807         797.215
  494         254.015         261.324         375.924         416.562         427.607         465.388         503.075         548.810         667.699         740.662         780.227         796.053
  495         256.770         264.098         376.461         420.180         428.258         465.271         502.248         549.904         667.435         740.602         779.642         794.879
  496         259.518         266.854         377.009         423.763         428.916         465.155         501.427         550.983         667.173         740.540         779.051         793.693
  497         262.259         269.593         377.565         427.312         429.581         465.040         500.611         552.047         666.915         740.476         778.453         792.496
  498         264.992         272.312         378.132         430.252         430.824         464.926         499.802         553.096         666.659         740.409         777.851         791.287
  499         267.717         275.012         378.708         430.929         434.301         464.814         498.999         554.129         666.406         740.340         777.242         790.067
  500         270.433         277.693         379.295         431.612         437.742         464.702         498.201         555.147         666.157         740.267         776.629         788.836
  501         273.142         280.354         379.891         432.300         441.146         464.592         497.410         556.150         665.912         740.192         776.010         787.594
  502         275.842         282.994         380.497         432.993         444.514         464.482         496.624         557.137         665.671         740.115         775.386         786.341
  503         278.533         285.614         381.113         433.691         447.846         464.373         495.845         558.108         665.433         740.035         774.758         785.078
  504         281.215         288.212         381.740         434.393         451.140         464.265         495.072         559.064         665.201         739.952         774.125         783.804
  505         283.888         290.790         382.376         435.098         454.398         464.157         494.304         560.005         664.972         739.866         773.488         782.520
  506         286.551         293.346         383.022         435.806         457.617         464.049         493.543         560.930         664.749         739.778         772.847         781.226
  507         289.205         295.879         383.679         436.517         460.800         463.942         492.788         561.839         664.531         739.687         772.202         779.922
  508         291.849         298.391         384.345         437.230         463.834         463.944         492.039         562.733         664.318         739.594         771.553         778.609
  509         294.483         300.881         385.021         437.945         463.727         467.049         491.296         563.612         664.110         739.497         770.901         777.286
  510         297.106         303.348         385.708         438.660         463.619         470.114         490.561         564.476         663.909         739.399         770.245         775.955
  511         299.719         305.792         386.404         439.376         463.511         473.139         489.834         565.324         663.713         739.297         769.587         774.614
  512         302.320         308.213         387.110         440.092         463.402         476.119         489.119         566.158         663.524         739.193         768.926         773.265
  513         304.911         310.611         387.826         440.807         463.292         479.046         488.422         566.976         663.342         739.086         768.262         771.907
  514         307.490         312.986         388.552         441.520         463.181         481.894         487.772         567.780         663.167         738.977         767.596         770.542
  515         310.057         315.338         389.287         442.231         463.069         484.500         487.328         568.570         662.998         738.865         766.928         769.168
  516         312.611         317.667         390.032         442.939         462.955         485.622         488.334         569.344         662.837         738.751         766.259         767.787
  517         315.154         319.972         390.786         443.644         462.840         485.208         490.842         570.105         662.684         738.635         765.588         766.399
  518         317.684         322.254         391.550         444.344         462.722         484.574         493.535         570.851         662.539         738.516         764.916         765.004
  519         320.201         324.512         392.323         445.039         462.603         483.898         496.233         571.584         662.403         738.394         763.602         764.243
  520         322.704         326.748         393.105         445.727         462.480         483.209         498.910         572.303         662.275         738.270         762.194         763.570
  521         325.194         328.960         393.896         446.409         462.355         482.514         501.555         573.008         662.156         738.145         760.780         762.896
  522         327.670         331.149         394.696         447.083         462.227         481.817         504.165         573.700         662.046         738.017         759.360         762.222
  523         330.131         333.315         395.504         447.748         462.095         481.118         506.740         574.379         661.946         737.887         757.935         761.549
  524         332.578         335.458         396.321         448.404         461.959         480.419         509.278         575.044         661.855         737.755         756.505         760.876
  525         335.010         337.578         397.146         449.050         461.819         479.719         511.778         575.697         661.775         737.621         755.071         760.204
  526         337.426         339.676         397.979         449.685         461.675         479.019         514.241         576.338         661.705         737.485         753.632         759.534
  527         339.827         341.751         398.820         450.307         461.526         478.317         516.666         576.966         661.647         737.348         752.189         758.864
  528         342.212         343.804         399.669         450.916         461.373         477.615         519.052         577.582         661.599         737.209         750.742         758.197
  529         344.580         345.835         400.524         451.512         461.213         476.911         521.401         578.185         661.563         737.069         749.293         757.532
  530         346.932         347.844         401.387         452.093         461.048         476.205         523.711         578.777         661.539         736.927         747.841         756.869
  531         349.266         349.832         402.256         452.658         460.876         475.498         525.982         579.357         661.527         736.784         746.386         756.209
  532         351.583         351.798         403.132         453.206         460.698         474.789         528.215         579.926         661.527         736.641         744.930         755.552
  533         353.743         353.882         404.013         453.737         460.513         474.076         530.409         580.483         661.541         736.496         743.472         754.899
  534         355.668         356.162         404.900         454.250         460.320         473.362         532.564         581.029         661.567         736.351         742.013         754.249
  535         357.572         358.424         405.792         454.744         460.120         472.644         534.681         581.563         661.607         736.205         740.554         753.603
  536         359.455         360.667         406.689         455.217         459.911         471.922         536.759         582.086         661.662         736.059         739.095         752.962
  537         361.319         362.890         407.591         455.670         459.693         471.197         538.798         582.597         661.730         735.913         737.636         752.326
  538         363.163         365.093         408.496         456.102         459.467         470.469         540.798         583.098         661.813         735.767         736.177         751.694
  539         364.988         367.276         409.404         456.511         459.230         469.736         542.759         583.587         661.911         734.720         735.622         751.068
  540         366.793         369.439         410.315         456.897         458.984         468.999         544.681         584.065         662.025         733.265         735.476         750.448
  541         368.580         371.580         411.228         457.260         458.727         468.258         546.564         584.531         662.154         731.812         735.332         749.834
  542         370.348         373.700         412.142         457.598         458.459         467.512         548.408         584.986         662.300         730.362         735.189         749.226
  543         372.097         375.798         413.057         457.912         458.179         466.762         550.213         585.429         662.461         728.915         735.047         748.625
  544         373.829         377.873         413.972         457.887         458.200         466.007         551.979         585.861         662.640         727.472         734.907         748.031
  545         375.543         379.926         414.887         457.583         458.462         465.248         553.705         586.280         662.836         726.034         734.769         747.445
  546         377.239         381.956         415.799         457.266         458.697         464.484         555.392         586.687         663.049         724.600         734.633         746.866
  547         378.918         383.963         416.709         456.935         458.906         463.716         557.039         587.081         663.280         723.171         734.499         746.296
  548         380.579         385.945         417.615         456.590         459.088         462.945         558.648         587.463         663.529         721.749         734.368         745.734
  549         382.224         387.904         418.516         456.231         459.242         462.170         560.216         587.831         663.797         720.333         734.240         745.180
  550         383.852         389.837         419.410         455.856         459.369         461.392         561.746         588.185         664.083         718.924         734.116         744.636
  551         385.464         391.746         420.297         455.466         459.467         460.611         563.236         588.526         664.389         717.522         733.996         744.101
  552         387.059         393.630         421.175         455.059         459.537         459.830         564.686         588.852         664.714         716.128         733.879         743.576
  553         388.638         395.488         422.041         454.636         459.048         459.580         566.097         589.162         665.059         714.744         733.768         743.061
  554         390.200         397.319         422.894         454.195         458.266         459.594         567.468         589.457         665.424         713.368         733.661         742.556
  555         391.747         399.125         423.732         453.737         457.487         459.579         568.800         589.737         665.809         712.002         733.559         742.062
  556         393.278         400.904         424.551         453.261         456.713         459.537         570.092         589.999         666.215         710.646         733.464         741.579
  557         394.792         402.656         425.349         452.765         455.945         459.467         571.345         590.244         666.642         709.302         733.374         741.107
  558         396.291         404.380         426.122         452.250         455.187         459.368         572.558         590.471         667.089         707.968         733.290         740.647
  559         397.773         406.077         426.865         451.716         454.442         459.243         573.732         590.680         667.558         706.647         733.214         740.198
  560         399.240         407.746         427.574         451.161         453.715         459.090         574.866         590.869         668.049         705.338         733.144         739.762
  561         400.690         409.387         428.242         450.585         453.011         458.911         575.961         591.038         668.561         704.042         733.082         739.338
  562         402.125         411.000         428.863         449.987         452.335         458.705         577.016         591.187         669.096         702.760         733.029         738.926
  563         403.542         412.585         429.428         449.368         451.695         458.473         578.033         591.314         669.652         701.492         732.983         738.527
  564         404.943         414.140         429.929         448.726         451.100         458.217         579.010         591.419         670.230         700.238         732.947         738.142
  565         406.327         415.667         430.356         448.061         450.558         457.936         579.948         591.501         670.831         699.000         732.919         737.769
  566         407.694         417.165         430.697         447.373         450.081         457.631         580.847         591.560         671.455         697.777         732.901         737.410
  567         409.043         418.633         430.942         446.661         449.677         457.303         581.707         591.594         672.101         696.570         732.893         737.064
  568         410.374         420.072         431.081         445.924         449.356         456.954         582.529         591.603         672.769         695.380         732.896         736.732
  569         411.687         421.482         431.105         445.163         449.126         456.584         583.313         591.586         673.461         694.207         732.909         736.414
  570         412.979         422.862         431.010         444.376         448.991         456.195         584.058         591.542         674.175         693.052         732.932         736.109
  571         414.252         424.213         430.795         443.564         448.951         455.788         584.766         591.471         674.911         691.914         732.968         735.819
  572         415.503         425.534         430.461         442.726         449.003         455.364         585.436         591.372         675.671         690.795         733.015         735.543
  573         416.732         426.826         430.016         441.862         449.140         454.925         586.069         591.244         676.453         689.695         733.074         735.281
  574         417.937         428.088         429.468         440.971         449.353         454.473         586.664         591.086         677.257         688.614         733.145         735.033
  575         419.116         428.826         429.320         440.053         449.632         454.011         587.223         590.899         678.084         687.553         733.228         734.799
  576         420.268         428.101         430.524         439.107         449.964         453.541         587.746         590.680         678.933         686.511         733.325         734.580
  577         421.391         427.303         431.698         438.134         450.341         453.065         588.233         590.430         679.805         685.490         733.434         734.375
  578         422.481         426.440         432.842         437.132         450.752         452.588         588.685         590.147         680.698         684.489         733.557         734.183
  579         423.535         425.520         433.958         436.103         451.189         452.113         589.102         589.832         681.614         683.510         733.693         734.006
  580         424.550         424.550         435.045         435.045         451.645         451.645         589.484         589.484         682.551         682.551         733.843         733.843
