# Phonon frequencies in cm-1
    1           0.000           0.000           0.000         359.067         415.785         447.015         475.220         559.724         684.362         740.781         803.869         847.186
    2           2.666           2.920           6.362         359.103         415.785         447.023         475.191         559.720         684.379         740.768         803.851         847.177
    3           5.332           5.839          12.724         359.213         415.788         447.044         475.102         559.708         684.430         740.731         803.796         847.151
    4           7.999           8.758          19.084         359.394         415.793         447.079         474.954         559.689         684.515         740.668         803.705         847.107
    5          10.666          11.678          25.444         359.646         415.800         447.129         474.748         559.662         684.634         740.579         803.577         847.047
    6          13.334          14.596          31.801         359.967         415.812         447.193         474.483         559.627         684.787         740.466         803.412         846.968
    7          16.002          17.515          38.157         360.356         415.829         447.271         474.159         559.585         684.974         740.327         803.211         846.873
    8          18.671          20.432          44.510         360.810         415.853         447.363         473.777         559.535         685.193         740.162         802.973         846.760
    9          21.342          23.350          50.860         361.325         415.887         447.470         473.338         559.477         685.446         739.973         802.699         846.630
   10          24.014          26.266          57.206         361.899         415.932         447.590         472.841         559.412         685.731         739.757         802.388         846.482
   11          26.687          29.182          63.548         362.527         415.992         447.725         472.288         559.339         686.048         739.516         802.041         846.318
   12          29.362          32.097          69.886         363.204         416.069         447.873         471.678         559.259         686.396         739.249         801.658         846.136
   13          32.038          35.011          76.219         363.926         416.169         448.036         471.013         559.171         686.776         738.955         801.238         845.937
   14          34.716          37.924          82.546         364.686         416.296         448.212         470.293         559.076         687.186         738.636         800.782         845.721
   15          37.396          40.836          88.868         365.478         416.454         448.402         469.518         558.974         687.626         738.290         800.290         845.488
   16          40.079          43.747          95.184         366.295         416.648         448.607         468.689         558.865         688.096         737.917         799.762         845.238
   17          42.763          46.657         101.493         367.128         416.886         448.824         467.808         558.748         688.594         737.518         799.198         844.971
   18          45.451          49.565         107.794         367.969         417.174         449.056         466.874         558.625         689.120         737.092         798.598         844.687
   19          48.140          52.471         114.088         368.809         417.518         449.301         465.889         558.494         689.674         736.638         797.962         844.387
   20          50.832          55.377         120.374         369.639         417.927         449.559         464.854         558.357         690.254         736.157         797.291         844.070
   21          53.527          58.280         126.652         370.448         418.409         449.831         463.768         558.213         690.861         735.648         796.584         843.736
   22          56.225          61.182         132.920         371.226         418.970         450.117         462.634         558.063         691.493         735.111         795.841         843.386
   23          58.927          64.082         139.179         371.963         419.621         450.415         461.451         557.907         692.149         734.545         795.063         843.019
   24          61.631          66.979         145.428         372.650         420.367         450.727         460.221         557.745         692.829         733.951         794.251         842.637
   25          64.338          69.875         151.667         373.276         421.216         451.052         458.945         557.576         693.533         733.328         793.403         842.237
   26          67.049          72.769         157.894         373.834         422.173         451.390         457.623         557.403         694.259         732.675         792.520         841.822
   27          69.763          75.660         164.110         374.318         423.244         451.740         456.256         557.223         695.006         731.993         791.602         841.391
   28          72.481          78.549         170.314         374.719         424.431         452.104         454.845         557.039         695.775         731.281         790.650         840.944
   29          75.203          81.436         176.505         375.036         425.738         452.480         453.392         556.850         696.563         730.538         789.664         840.481
   30          77.928          84.320         182.684         375.264         427.163         451.897         452.868         556.657         697.372         729.764         788.644         840.002
   31          80.658          87.201         188.849         375.403         428.706         450.360         453.269         556.459         698.199         728.959         787.589         839.508
   32          83.391          90.079         195.000         375.452         430.364         448.783         453.682         556.258         699.045         728.121         786.501         838.998
   33          86.128          92.955         201.137         375.413         432.133         447.166         454.107         556.054         699.908         727.252         785.380         838.473
   34          88.870          95.827         207.258         375.287         434.009         445.511         454.544         555.847         700.788         726.350         784.225         837.933
   35          91.615          98.696         213.364         375.078         435.986         443.818         454.993         555.638         701.684         725.415         783.038         837.378
   36          94.365         101.562         219.453         374.788         438.059         442.088         455.454         555.427         702.595         724.446         781.818         836.808
   37          97.119         104.425         225.526         374.421         440.221         440.322         455.926         555.216         703.522         723.443         780.566         836.223
   38          99.877         107.284         231.582         373.982         438.520         442.465         456.409         555.005         704.463         722.405         779.281         835.623
   39         102.640         110.139         237.620         373.473         436.684         444.785         456.904         554.795         705.418         721.332         777.965         835.010
   40         105.407         112.990         243.639         372.898         434.814         447.175         457.409         554.587         706.386         720.224         776.617         834.381
   41         108.179         115.838         249.639         372.261         432.911         449.628         457.926         554.381         707.367         719.078         775.239         833.739
   42         110.955         118.681         255.620         371.565         430.976         452.138         458.453         554.180         708.360         717.896         773.829         833.082
   43         113.736         121.520         261.580         370.813         429.009         454.698         458.990         553.985         709.364         716.676         772.390         832.412
   44         116.521         124.355         267.519         370.008         427.012         457.302         459.538         553.797         710.380         715.419         770.920         831.728
   45         119.311         127.185         273.437         369.154         424.984         459.944         460.096         553.617         711.406         714.122         769.421         831.031
   46         122.105         130.011         279.332         368.252         422.927         460.663         462.618         553.449         712.443         712.786         767.893         830.320
   47         124.904         132.832         285.203         367.305         420.841         461.241         465.318         553.294         711.410         713.489         766.336         829.595
   48         127.708         135.648         291.051         366.315         418.727         461.827         468.037         553.155         709.994         714.544         764.750         828.858
   49         130.516         138.458         296.873         365.286         416.586         462.423         470.770         553.034         708.536         715.608         763.137         828.108
   50         133.329         141.264         302.669         364.218         414.418         463.028         473.510         552.935         707.037         716.681         761.496         827.346
   51         136.146         144.064         308.436         363.114         412.224         463.642         476.250         552.863         705.495         717.762         759.828         826.570
   52         138.968         146.858         314.174         361.978         410.004         464.264         478.983         552.820         703.910         718.850         758.133         825.783
   53         141.794         149.647         319.877         360.813         407.760         464.895         481.702         552.813         702.281         719.945         756.412         824.983
   54         144.624         152.430         325.543         359.625         405.491         465.533         484.398         552.846         700.608         721.048         754.665         824.171
   55         147.459         155.207         331.160         358.423         403.199         466.180         487.063         552.926         698.890         722.157         752.893         823.348
   56         150.298         157.978         336.708         357.229         400.883         466.834         489.688         553.060         697.127         723.272         751.096         822.513
   57         153.142         160.742         342.127         356.104         398.545         467.495         492.263         553.257         695.318         724.393         749.275         821.666
   58         155.990         163.500         347.165         355.298         396.185         468.163         494.776         553.525         693.462         725.520         747.429         820.808
   59         158.842         166.251         350.422         356.211         393.804         468.838         497.218         553.874         691.559         726.652         745.560         819.939
   60         161.697         168.995         350.436         360.306         391.401         469.519         499.575         554.314         689.608         727.789         743.667         819.060
   61         164.557         171.732         349.369         365.422         388.979         470.206         501.836         554.857         687.609         728.931         741.751         818.169
   62         167.421         174.462         348.051         370.726         386.536         470.899         503.988         555.514         685.562         730.077         739.813         817.269
   63         170.289         177.184         346.633         376.067         384.074         471.598         506.019         556.296         683.466         731.228         737.853         816.357
   64         173.160         179.899         345.156         381.405         381.594         472.302         507.918         557.213         681.320         732.382         735.870         815.436
   65         176.035         182.606         343.635         379.095         386.722         473.011         509.676         558.273         679.125         733.540         733.867         814.505
   66         178.913         185.305         342.078         376.578         392.009         473.724         511.286         559.484         676.880         731.841         734.702         813.564
   67         181.795         187.996         340.490         374.044         397.263         474.441         512.745         560.848         674.585         729.795         735.867         812.614
   68         184.680         190.678         338.872         371.493         402.478         475.163         514.052         562.365         672.239         727.728         737.034         811.654
   69         187.568         193.352         337.227         368.926         407.652         475.887         515.210         564.035         669.842         725.640         738.205         810.685
   70         190.459         196.018         335.555         366.342         412.782         476.615         516.225         565.849         667.395         723.532         739.378         809.707
   71         193.353         198.674         333.858         363.743         417.864         477.346         517.108         567.800         664.896         721.404         740.554         808.721
   72         196.249         201.322         332.136         361.129         422.895         478.078         517.870         569.879         662.347         719.255         741.731         807.726
   73         199.148         203.960         330.390         358.500         427.870         478.813         518.524         572.073         659.747         717.087         742.911         806.722
   74         202.050         206.589         328.621         355.858         432.787         479.549         519.085         574.371         657.096         714.898         744.092         805.711
   75         204.954         209.208         326.828         353.201         437.639         480.286         519.568         576.762         654.394         712.690         745.275         804.691
   76         207.859         211.817         325.013         350.531         442.420         481.023         519.990         579.233         651.642         710.462         746.459         803.664
   77         210.767         214.416         323.176         347.848         447.124         481.760         520.367         581.774         648.839         708.215         747.645         802.629
   78         213.676         217.005         321.317         345.152         451.740         482.497         520.717         584.375         645.986         705.947         748.832         801.587
   79         216.587         219.583         319.436         342.445         456.259         483.232         521.059         587.027         643.083         703.660         750.019         800.538
   80         219.499         222.151         317.535         339.725         460.666         483.966         521.413         589.722         640.131         701.354         751.207         799.481
   81         222.412         224.707         315.613         336.995         464.945         484.697         521.802         592.453         637.130         699.028         752.396         798.418
   82         225.326         227.253         313.670         334.253         469.076         485.425         522.252         595.213         634.081         696.682         753.584         797.348
   83         228.241         229.788         311.707         331.501         473.032         486.150         522.793         597.997         630.984         694.317         754.773         796.272
   84         231.156         232.311         309.724         328.738         476.786         486.869         523.459         600.800         627.839         691.931         755.962         795.189
   85         234.071         234.822         307.722         325.966         480.301         487.584         524.287         603.616         624.648         689.527         757.151         794.101
   86         236.987         237.321         305.701         323.184         483.540         488.292         525.319         606.444         621.412         687.102         758.340         793.006
   87         239.809         239.902         303.660         320.393         486.465         488.993         526.596         609.278         618.130         684.658         759.528         791.906
   88         242.284         242.817         301.601         317.594         489.044         489.685         528.152         612.116         614.805         682.195         760.715         790.801
   89         244.746         245.732         299.524         314.786         490.367         491.254         530.011         611.438         614.954         679.712         761.901         789.690
   90         247.196         248.645         297.428         311.970         491.039         493.092         532.179         608.029         617.792         677.209         763.087         788.574
   91         249.633         251.558         295.314         309.146         491.697         494.570         534.646         604.580         620.626         674.687         764.271         787.453
   92         252.057         254.468         293.182         306.315         492.342         495.715         537.384         601.093         623.454         672.146         765.454         786.328
   93         254.467         257.378         291.033         303.477         492.970         496.567         540.357         597.570         626.276         669.585         766.635         785.197
   94         256.864         260.285         288.867         300.633         493.579         497.165         543.524         594.012         629.089         667.006         767.815         784.063
   95         259.246         263.190         286.684         297.782         494.168         497.550         546.847         590.423         631.891         664.408         768.993         782.924
   96         261.615         266.093         284.484         294.925         494.732         497.758         550.290         586.805         634.683         661.791         770.169         781.781
   97         263.970         268.993         282.268         292.062         495.269         497.819         553.824         583.162         637.462         659.155         771.342         780.634
   98         266.310         271.890         280.035         289.194         495.773         497.759         557.423         579.498         640.228         656.502         772.514         779.484
   99         268.636         274.784         277.786         286.321         496.241         497.599         561.068         575.817         642.980         653.831         773.683         778.330
  100         270.946         275.522         277.675         283.443         496.665         497.354         564.741         572.126         645.717         651.143         774.849         777.173
  101         273.242         273.242         280.561         280.561         497.039         497.039         568.431         568.431         648.438         648.438         776.012         776.012
  102         273.253         273.253         280.585         280.585         497.035         497.035         568.451         568.451         648.399         648.399         776.029         776.029
  103         273.287         273.287         280.657         280.657         497.024         497.024         568.511         568.511         648.284         648.284         776.077         776.077
  104         273.343         273.343         280.777         280.777         497.004         497.004         568.611         568.611         648.092         648.092         776.156         776.156
  105         273.422         273.422         280.944         280.944         496.976         496.976         568.751         568.751         647.824         647.824         776.267         776.267
  106         273.524         273.524         281.159         281.159         496.939         496.939         568.931         568.931         647.480         647.480         776.409         776.409
  107         273.651         273.651         281.419         281.419         496.894         496.894         569.152         569.152         647.061         647.061         776.581         776.581
  108         273.801         273.801         281.724         281.724         496.839         496.839         569.415         569.415         646.569         646.569         776.781         776.781
  109         273.976         273.976         282.075         282.075         496.773         496.773         569.719         569.719         646.004         646.004         777.010         777.010
  110         274.177         274.177         282.468         282.468         496.697         496.697         570.065         570.065         645.368         645.368         777.264         777.264
  111         274.403         274.403         282.905         282.905         496.609         496.609         570.454         570.454         644.661         644.661         777.545         777.545
  112         274.656         274.656         283.383         283.383         496.508         496.508         570.886         570.886         643.886         643.886         777.848         777.848
  113         274.935         274.935         283.902         283.902         496.395         496.395         571.362         571.362         643.044         643.044         778.175         778.175
  114         275.241         275.241         284.461         284.461         496.267         496.267         571.882         571.882         642.137         642.137         778.521         778.521
  115         275.575         275.575         285.059         285.059         496.123         496.123         572.447         572.447         641.165         641.165         778.887         778.887
  116         275.936         275.936         285.695         285.695         495.964         495.964         573.057         573.057         640.132         640.132         779.270         779.270
  117         276.325         276.325         286.369         286.369         495.788         495.788         573.714         573.714         639.039         639.039         779.668         779.668
  118         276.742         276.742         287.078         287.078         495.593         495.593         574.417         574.417         637.888         637.888         780.080         780.080
  119         277.188         277.188         287.824         287.824         495.380         495.380         575.167         575.167         636.680         636.680         780.504         780.504
  120         277.661         277.661         288.604         288.604         495.147         495.147         575.965         575.965         635.417         635.417         780.937         780.937
  121         278.162         278.162         289.418         289.418         494.894         494.894         576.810         576.810         634.102         634.102         781.380         781.380
  122         278.692         278.692         290.265         290.265         494.619         494.619         577.703         577.703         632.735         632.735         781.828         781.828
  123         279.250         279.250         291.145         291.145         494.321         494.321         578.645         578.645         631.320         631.320         782.281         782.281
  124         279.835         279.835         292.056         292.056         494.001         494.001         579.635         579.635         629.857         629.857         782.737         782.737
  125         280.448         280.448         292.999         292.999         493.658         493.658         580.673         580.673         628.348         628.348         783.195         783.195
  126         281.088         281.088         293.972         293.972         493.290         493.290         581.760         581.760         626.796         626.796         783.652         783.652
  127         281.756         281.756         294.975         294.975         492.898         492.898         582.895         582.895         625.202         625.202         784.107         784.107
  128         282.450         282.450         296.008         296.008         492.481         492.481         584.078         584.078         623.567         623.567         784.559         784.559
  129         283.171         283.171         297.068         297.068         492.038         492.038         585.308         585.308         621.893         621.893         785.005         785.005
  130         283.919         283.919         298.157         298.157         491.570         491.570         586.586         586.586         620.183         620.183         785.445         785.445
  131         284.692         284.692         299.273         299.273         491.076         491.076         587.909         587.909         618.437         618.437         785.877         785.877
  132         285.490         285.490         300.416         300.416         490.556         490.556         589.279         589.279         616.657         616.657         786.300         786.300
  133         286.314         286.314         301.585         301.585         490.010         490.010         590.692         590.692         614.846         614.846         786.712         786.712
  134         287.163         287.163         302.780         302.780         489.438         489.438         592.148         592.148         613.006         613.006         787.111         787.111
  135         288.036         288.036         304.000         304.000         488.839         488.839         593.645         593.645         611.139         611.139         787.498         787.498
  136         288.932         288.932         305.244         305.244         488.215         488.215         595.178         595.178         609.250         609.250         787.870         787.870
  137         289.853         289.853         306.512         306.512         487.564         487.564         596.738         596.738         607.348         607.348         788.226         788.226
  138         290.796         290.796         307.804         307.804         486.888         486.888         598.302         598.302         605.458         605.458         788.566         788.566
  139         291.762         291.762         309.119         309.119         486.187         486.187         599.760         599.760         603.689         603.689         788.888         788.888
  140         292.750         292.750         310.456         310.456         485.460         485.460         600.279         600.279         602.873         602.873         789.192         789.192
  141         293.760         293.760         311.815         311.815         484.709         484.709         598.861         598.861         604.010         604.010         789.475         789.475
  142         294.791         294.791         313.195         313.195         483.933         483.933         596.939         596.939         605.667         605.667         789.738         789.738
  143         295.843         295.843         314.596         314.596         483.134         483.134         594.911         594.911         607.444         607.444         789.980         789.980
  144         296.916         296.916         316.018         316.018         482.310         482.310         592.836         592.836         609.282         609.282         790.199         790.199
  145         298.008         298.008         317.459         317.459         481.464         481.464         590.730         590.730         611.166         611.166         790.395         790.395
  146         299.120         299.120         318.920         318.920         480.595         480.595         588.598         588.598         613.089         613.089         790.566         790.566
  147         300.251         300.251         320.399         320.399         479.703         479.703         586.446         586.446         615.047         615.047         790.714         790.714
  148         301.400         301.400         321.897         321.897         478.791         478.791         584.274         584.274         617.038         617.038         790.835         790.835
  149         302.567         302.567         323.413         323.413         477.857         477.857         582.084         582.084         619.059         619.059         790.931         790.931
  150         303.752         303.752         324.946         324.946         476.903         476.903         579.878         579.878         621.109         621.109         791.000         791.000
  151         304.955         304.955         326.496         326.496         475.929         475.929         577.656         577.656         623.186         623.186         791.041         791.041
  152         306.174         306.174         328.063         328.063         474.936         474.936         575.420         575.420         625.289         625.289         791.055         791.055
  153         307.409         307.409         329.645         329.645         473.925         473.925         573.170         573.170         627.416         627.416         791.040         791.040
  154         308.660         308.660         331.242         331.242         472.896         472.896         570.907         570.907         629.566         629.566         790.995         790.995
  155         309.926         309.926         332.853         332.853         471.850         471.850         568.632         568.632         631.737         631.737         790.922         790.922
  156         311.208         311.208         334.479         334.479         470.788         470.788         566.346         566.346         633.927         633.927         790.818         790.818
  157         312.503         312.503         336.118         336.118         469.711         469.711         564.049         564.049         636.137         636.137         790.684         790.684
  158         313.813         313.813         337.770         337.770         468.618         468.618         561.743         561.743         638.364         638.364         790.519         790.519
  159         315.137         315.137         339.434         339.434         467.512         467.512         559.427         559.427         640.607         640.607         790.323         790.323
  160         316.473         316.473         341.109         341.109         466.394         466.394         557.102         557.102         642.864         642.864         790.095         790.095
  161         317.823         317.823         342.794         342.794         465.263         465.263         554.770         554.770         645.135         645.135         789.835         789.835
  162         319.184         319.184         344.490         344.490         464.122         464.122         552.430         552.430         647.417         647.417         789.543         789.543
  163         320.558         320.558         346.194         346.194         462.970         462.970         550.083         550.083         649.711         649.711         789.218         789.218
  164         321.942         321.942         347.907         347.907         461.810         461.810         547.731         547.731         652.013         652.013         788.860         788.860
  165         323.338         323.338         349.626         349.626         460.643         460.643         545.373         545.373         654.325         654.325         788.469         788.469
  166         324.744         324.744         351.352         351.352         459.469         459.469         543.010         543.010         656.643         656.643         788.044         788.044
  167         326.161         326.161         353.082         353.082         458.291         458.291         540.642         540.642         658.966         658.966         787.586         787.586
  168         327.587         327.587         354.815         354.815         457.109         457.109         538.271         538.271         661.295         661.295         787.094         787.094
  169         329.022         329.022         356.550         356.550         455.925         455.925         535.897         535.897         663.627         663.627         786.568         786.568
  170         330.465         330.465         358.286         358.286         454.742         454.742         533.519         533.519         665.961         665.961         786.007         786.007
  171         331.917         331.917         360.021         360.021         453.560         453.560         531.140         531.140         668.295         668.295         785.412         785.412
  172         333.377         333.377         361.752         361.752         452.383         452.383         528.760         528.760         670.630         670.630         784.783         784.783
  173         334.844         334.844         363.478         363.478         451.213         451.213         526.378         526.378         672.964         672.964         784.119         784.119
  174         336.317         336.317         365.195         365.195         450.052         450.052         523.996         523.996         675.295         675.295         783.420         783.420
  175         337.797         337.797         366.902         366.902         448.903         448.903         521.615         521.615         677.623         677.623         782.686         782.686
  176         339.282         339.282         368.595         368.595         447.770         447.770         519.234         519.234         679.947         679.947         781.917         781.917
  177         340.773         340.773         370.271         370.271         446.656         446.656         516.854         516.854         682.265         682.265         781.114         781.114
  178         342.268         342.268         371.925         371.925         445.565         445.565         514.477         514.477         684.576         684.576         780.275         780.275
  179         343.767         343.767         373.552         373.552         444.504         444.504         512.102         512.102         686.880         686.880         779.402         779.402
  180         345.270         345.270         375.149         375.149         443.476         443.476         509.731         509.731         689.175         689.175         778.493         778.493
  181         346.776         346.776         376.708         376.708         442.488         442.488         507.363         507.363         691.461         691.461         777.550         777.550
  182         348.283         348.283         378.223         378.223         441.547         441.547         505.001         505.001         693.736         693.736         776.572         776.572
  183         349.792         349.792         379.686         379.686         440.661         440.661         502.643         502.643         696.000         696.000         775.559         775.559
  184         351.302         351.302         381.088         381.088         439.839         439.839         500.292         500.292         698.251         698.251         774.511         774.511
  185         352.812         352.812         382.421         382.421         439.090         439.090         497.947         497.947         700.490         700.490         773.429         773.429
  186         354.321         354.321         383.674         383.674         438.424         438.424         495.610         495.610         702.714         702.714         772.312         772.312
  187         355.829         355.829         384.836         384.836         437.853         437.853         493.282         493.282         704.923         704.923         771.161         771.161
  188         357.334         357.334         385.895         385.895         437.389         437.389         490.963         490.963         707.116         707.116         769.975         769.975
  189         358.836         358.836         386.840         386.840         437.043         437.043         488.655         488.655         709.293         709.293         768.755         768.755
  190         360.333         360.333         387.659         387.659         436.827         436.827         486.357         486.357         711.452         711.452         767.502         767.502
  191         361.824         361.824         388.341         388.341         436.751         436.751         484.073         484.073         713.593         713.593         766.214         766.214
  192         363.309         363.309         388.880         388.880         436.825         436.825         481.802         481.802         715.715         715.715         764.894         764.894
  193         364.786         364.786         389.267         389.267         437.054         437.054         479.546         479.546         717.818         717.818         763.540         763.540
  194         366.253         366.253         389.500         389.500         437.442         437.442         477.307         477.307         719.899         719.899         762.152         762.152
  195         367.708         367.708         389.579         389.579         437.989         437.989         475.085         475.085         721.960         721.960         760.733         760.733
  196         369.151         369.151         389.506         389.506         438.693         438.693         472.884         472.884         723.999         723.999         759.280         759.280
  197         370.579         370.579         389.287         389.287         439.548         439.548         470.704         470.704         726.015         726.015         757.796         757.796
  198         371.990         371.990         388.929         388.929         440.547         440.547         468.547         468.547         728.008         728.008         756.279         756.279
  199         373.381         373.381         388.443         388.443         441.680         441.680         466.417         466.417         729.977         729.977         754.731         754.731
  200         374.750         374.750         387.838         387.838         442.938         442.938         464.316         464.316         731.922         731.922         753.152         753.152
  201         376.094         376.094         387.125         387.125         444.308         444.308         462.247         462.247         733.842         733.842         751.542         751.542
  202         377.410         377.410         386.316         386.316         445.781         445.781         460.212         460.212         735.736         735.736         749.902         749.902
  203         378.693         378.693         385.419         385.419         447.347         447.347         458.217         458.217         737.603         737.603         748.232         748.232
  204         379.939         379.939         384.445         384.445         448.996         448.996         456.265         456.265         739.445         739.445         746.532         746.532
  205         381.143         381.143         383.403         383.403         450.720         450.720         454.361         454.361         741.259         741.259         744.803         744.803
  206         382.300         382.300         382.300         382.300         452.510         452.510         452.510         452.510         743.045         743.045         743.045         743.045
  207         381.279         381.279         383.288         383.288         451.529         451.529         453.506         453.506         741.004         741.004         745.080         745.080
  208         380.228         380.228         384.240         384.240         450.563         450.563         454.513         454.513         738.959         738.959         747.108         747.108
  209         379.150         379.150         385.153         385.153         449.616         449.616         455.529         455.529         736.910         736.910         749.129         749.129
  210         378.047         378.047         386.022         386.022         448.691         448.691         456.554         456.554         734.859         734.859         751.142         751.142
  211         376.922         376.922         386.844         386.844         447.790         447.790         457.586         457.586         732.805         732.805         753.146         753.146
  212         375.776         375.776         387.614         387.614         446.917         446.917         458.624         458.624         730.751         730.751         755.139         755.139
  213         374.612         374.612         388.327         388.327         446.077         446.077         459.666         459.666         728.697         728.697         757.123         757.123
  214         373.431         373.431         388.978         388.978         445.273         445.273         460.711         460.711         726.645         726.645         759.094         759.094
  215         372.234         372.234         389.562         389.562         444.510         444.510         461.759         461.759         724.594         724.594         761.054         761.054
  216         371.025         371.025         390.074         390.074         443.792         443.792         462.810         462.810         722.547         722.547         763.000         763.000
  217         369.803         369.803         390.506         390.506         443.124         443.124         463.861         463.861         720.505         720.505         764.933         764.933
  218         368.570         368.570         390.855         390.855         442.511         442.511         464.913         464.913         718.468         718.468         766.851         766.851
  219         367.327         367.327         391.113         391.113         441.958         441.958         465.965         465.965         716.438         716.438         768.755         768.755
  220         366.076         366.076         391.276         391.276         441.470         441.470         467.018         467.018         714.415         714.415         770.643         770.643
  221         364.817         364.817         391.339         391.339         441.050         441.050         468.069         468.069         712.401         712.401         772.514         772.514
  222         363.552         363.552         391.297         391.297         440.701         440.701         469.119         469.119         710.397         710.397         774.369         774.369
  223         362.281         362.281         391.147         391.147         440.428         440.428         470.168         470.168         708.403         708.403         776.206         776.206
  224         361.005         361.005         390.886         390.886         440.230         440.230         471.216         471.216         706.422         706.422         778.026         778.026
  225         359.726         359.726         390.513         390.513         440.110         440.110         472.261         472.261         704.453         704.453         779.827         779.827
  226         358.444         358.444         390.026         390.026         440.067         440.067         473.305         473.305         702.499         702.499         781.609         781.609
  227         357.160         357.160         389.427         389.427         440.099         440.099         474.346         474.346         700.560         700.560         783.372         783.372
  228         355.875         355.875         388.717         388.717         440.205         440.205         475.384         475.384         698.637         698.637         785.115         785.115
  229         354.588         354.588         387.899         387.899         440.382         440.382         476.419         476.419         696.731         696.731         786.837         786.837
  230         353.302         353.302         386.975         386.975         440.625         440.625         477.452         477.452         694.843         694.843         788.539         788.539
  231         352.017         352.017         385.949         385.949         440.930         440.930         478.481         478.481         692.974         692.974         790.220         790.220
  232         350.733         350.733         384.826         384.826         441.293         441.293         479.506         479.506         691.126         691.126         791.880         791.880
  233         349.451         349.451         383.608         383.608         441.710         441.710         480.528         480.528         689.298         689.298         793.518         793.518
  234         348.172         348.172         382.302         382.302         442.175         442.175         481.546         481.546         687.492         687.492         795.134         795.134
  235         346.896         346.896         380.911         380.911         442.683         442.683         482.560         482.560         685.709         685.709         796.728         796.728
  236         345.624         345.624         379.439         379.439         443.231         443.231         483.570         483.570         683.949         683.949         798.299         798.299
  237         344.356         344.356         377.891         377.891         443.813         443.813         484.575         484.575         682.214         682.214         799.847         799.847
  238         343.093         343.093         376.271         376.271         444.426         444.426         485.575         485.575         680.504         680.504         801.372         801.372
  239         341.836         341.836         374.581         374.581         445.065         445.065         486.571         486.571         678.820         678.820         802.874         802.874
  240         340.585         340.585         372.827         372.827         445.728         445.728         487.561         487.561         677.162         677.162         804.352         804.352
  241         339.341         339.341         371.010         371.010         446.410         446.410         488.546         488.546         675.532         675.532         805.807         805.807
  242         338.104         338.104         369.135         369.135         447.110         447.110         489.526         489.526         673.929         673.929         807.238         807.238
  243         336.874         336.874         367.204         367.204         447.823         447.823         490.499         490.499         672.354         672.354         808.645         808.645
  244         335.653         335.653         365.221         365.221         448.548         448.548         491.467         491.467         670.809         670.809         810.028         810.028
  245         334.440         334.440         363.187         363.187         449.282         449.282         492.428         492.428         669.292         669.292         811.386         811.386
  246         333.236         333.236         361.105         361.105         450.023         450.023         493.382         493.382         667.805         667.805         812.721         812.721
  247         332.042         332.042         358.979         358.979         450.770         450.770         494.330         494.330         666.348         666.348         814.031         814.031
  248         330.858         330.858         356.809         356.809         451.519         451.519         495.270         495.270         664.922         664.922         815.316         815.316
  249         329.685         329.685         354.599         354.599         452.271         452.271         496.203         496.203         663.526         663.526         816.577         816.577
  250         328.523         328.523         352.351         352.351         453.023         453.023         497.129         497.129         662.161         662.161         817.814         817.814
  251         327.372         327.372         350.067         350.067         453.774         453.774         498.046         498.046         660.827         660.827         819.025         819.025
  252         326.233         326.233         347.749         347.749         454.523         454.523         498.955         498.955         659.525         659.525         820.213         820.213
  253         325.107         325.107         345.399         345.399         455.269         455.269         499.855         499.855         658.253         658.253         821.376         821.376
  254         323.993         323.993         343.020         343.020         456.010         456.010         500.747         500.747         657.013         657.013         822.514         822.514
  255         322.893         322.893         340.614         340.614         456.746         456.746         501.629         501.629         655.805         655.805         823.628         823.628
  256         321.806         321.806         338.183         338.183         457.476         457.476         502.501         502.501         654.627         654.627         824.717         824.717
  257         320.733         320.733         335.729         335.729         458.199         458.199         503.364         503.364         653.481         653.481         825.781         825.781
  258         319.675         319.675         333.255         333.255         458.915         458.915         504.217         504.217         652.366         652.366         826.822         826.822
  259         318.632         318.632         330.763         330.763         459.623         459.623         505.059         505.059         651.283         651.283         827.838         827.838
  260         317.604         317.604         328.256         328.256         460.321         460.321         505.890         505.890         650.230         650.230         828.830         828.830
  261         316.592         316.592         325.735         325.735         461.010         461.010         506.710         506.710         649.207         649.207         829.797         829.797
  262         315.596         315.596         323.203         323.203         461.689         461.689         507.518         507.518         648.215         648.215         830.741         830.741
  263         314.616         314.616         320.663         320.663         462.358         462.358         508.314         508.314         647.253         647.253         831.660         831.660
  264         313.653         313.653         318.118         318.118         463.016         463.016         509.099         509.099         646.322         646.322         832.556         832.556
  265         312.708         312.708         315.569         315.569         463.662         463.662         509.870         509.870         645.419         645.419         833.428         833.428
  266         311.780         311.780         313.021         313.021         464.297         464.297         510.629         510.629         644.546         644.546         834.276         834.276
  267         310.474         310.474         310.869         310.869         464.920         464.920         511.374         511.374         643.702         643.702         835.101         835.101
  268         307.933         307.933         309.978         309.978         465.530         465.530         512.106         512.106         642.886         642.886         835.902         835.902
  269         305.401         305.401         309.104         309.104         466.127         466.127         512.824         512.824         642.099         642.099         836.680         836.680
  270         302.879         302.879         308.250         308.250         466.711         466.711         513.528         513.528         641.339         641.339         837.435         837.435
  271         300.372         300.372         307.415         307.415         467.282         467.282         514.217         514.217         640.607         640.607         838.167         838.167
  272         297.881         297.881         306.600         306.600         467.839         467.839         514.891         514.891         639.901         639.901         838.876         838.876
  273         295.411         295.411         305.805         305.805         468.382         468.382         515.549         515.549         639.222         639.222         839.562         839.562
  274         292.965         292.965         305.030         305.030         468.912         468.912         516.192         516.192         638.569         638.569         840.226         840.226
  275         290.545         290.545         304.275         304.275         469.426         469.426         516.820         516.820         637.942         637.942         840.867         840.867
  276         288.155         288.155         303.542         303.542         469.927         469.927         517.430         517.430         637.339         637.339         841.486         841.486
  277         285.798         285.798         302.829         302.829         470.412         470.412         518.025         518.025         636.762         636.762         842.083         842.083
  278         283.478         283.478         302.138         302.138         470.882         470.882         518.602         518.602         636.209         636.209         842.658         842.658
  279         281.198         281.198         301.469         301.469         471.338         471.338         519.162         519.162         635.680         635.680         843.212         843.212
  280         278.961         278.961         300.821         300.821         471.778         471.778         519.705         519.705         635.174         635.174         843.743         843.743
  281         276.770         276.770         300.196         300.196         472.202         472.202         520.229         520.229         634.691         634.691         844.253         844.253
  282         274.630         274.630         299.593         299.593         472.611         472.611         520.736         520.736         634.231         634.231         844.742         844.742
  283         272.544         272.544         299.013         299.013         473.004         473.004         521.224         521.224         633.794         633.794         845.210         845.210
  284         270.515         270.515         298.456         298.456         473.382         473.382         521.694         521.694         633.378         633.378         845.656         845.656
  285         268.546         268.546         297.922         297.922         473.743         473.743         522.145         522.145         632.983         632.983         846.082         846.082
  286         266.641         266.641         297.412         297.412         474.088         474.088         522.576         522.576         632.609         632.609         846.486         846.486
  287         264.804         264.804         296.925         296.925         474.417         474.417         522.989         522.989         632.257         632.257         846.870         846.870
  288         263.037         263.037         296.462         296.462         474.730         474.730         523.381         523.381         631.924         631.924         847.234         847.234
  289         261.344         261.344         296.023         296.023         475.027         475.027         523.754         523.754         631.612         631.612         847.577         847.577
  290         259.728         259.728         295.608         295.608         475.306         475.306         524.106         524.106         631.319         631.319         847.900         847.900
  291         258.192         258.192         295.217         295.217         475.570         475.570         524.439         524.439         631.045         631.045         848.202         848.202
  292         256.739         256.739         294.850         294.850         475.816         475.816         524.750         524.750         630.791         630.791         848.485         848.485
  293         255.373         255.373         294.509         294.509         476.046         476.046         525.041         525.041         630.555         630.555         848.747         848.747
  294         254.095         254.095         294.192         294.192         476.259         476.259         525.312         525.312         630.338         630.338         848.990         848.990
  295         252.909         252.909         293.900         293.900         476.456         476.456         525.561         525.561         630.139         630.139         849.213         849.213
  296         251.818         251.818         293.633         293.633         476.635         476.635         525.789         525.789         629.959         629.959         849.416         849.416
  297         250.822         250.822         293.391         293.391         476.798         476.798         525.996         525.996         629.796         629.796         849.600         849.600
  298         249.926         249.926         293.174         293.174         476.943         476.943         526.181         526.181         629.650         629.650         849.764         849.764
  299         249.130         249.130         292.982         292.982         477.072         477.072         526.345         526.345         629.523         629.523         849.909         849.909
  300         248.436         248.436         292.816         292.816         477.183         477.183         526.487         526.487         629.412         629.412         850.034         850.034
  301         247.847         247.847         292.676         292.676         477.277         477.277         526.607         526.607         629.319         629.319         850.140         850.140
  302         247.363         247.363         292.561         292.561         477.354         477.354         526.706         526.706         629.243         629.243         850.227         850.227
  303         246.985         246.985         292.471         292.471         477.414         477.414         526.783         526.783         629.184         629.184         850.294         850.294
  304         246.714         246.714         292.407         292.407         477.457         477.457         526.838         526.838         629.142         629.142         850.342         850.342
  305         246.552         246.552         292.368         292.368         477.483         477.483         526.871         526.871         629.116         629.116         850.371         850.371
  306         246.498         246.498         292.356         292.356         477.492         477.492         526.882         526.882         629.108         629.108         850.381         850.381
  307         244.727         248.251         289.956         294.741         476.486         478.492         525.195         528.588         624.976         633.210         849.979         850.754
  308         242.940         249.988         287.543         297.112         475.477         479.487         523.527         530.312         620.816         637.282         849.549         851.099
  309         241.137         251.707         285.116         299.468         474.466         480.474         521.881         532.055         616.628         641.322         849.090         851.416
  310         239.317         253.408         282.675         301.810         473.452         481.452         520.255         533.814         612.415         645.329         848.604         851.705
  311         237.481         255.092         280.221         304.137         472.438         482.420         518.652         535.590         608.178         649.303         848.089         851.966
  312         235.629         256.757         277.754         306.448         471.424         483.374         517.071         537.381         603.920         653.242         847.546         852.199
  313         233.762         258.404         275.275         308.744         470.410         484.314         515.513         539.187         599.643         657.147         846.975         852.404
  314         231.879         260.033         272.782         311.025         469.397         485.235         513.979         541.008         595.349         661.017         846.375         852.581
  315         229.981         261.642         270.278         313.289         468.386         486.135         512.470         542.842         591.043         664.851         845.748         852.731
  316         228.067         263.232         267.761         315.538         467.378         487.010         510.986         544.689         586.728         668.648         845.093         852.853
  317         226.139         264.802         265.232         317.771         466.372         487.855         509.527         546.548         582.409         672.409         844.410         852.947
  318         224.196         262.691         266.352         319.987         465.370         488.664         508.095         548.418         578.093         676.133         843.699         853.015
  319         222.238         260.139         267.882         322.187         464.372         489.431         506.690         550.299         573.786         679.819         842.961         853.056
  320         220.266         257.576         269.390         324.371         463.379         490.146         505.313         552.191         569.497         683.468         842.195         853.070
  321         218.279         255.002         270.878         326.537         462.390         490.799         503.963         554.091         565.237         687.078         841.403         853.057
  322         216.278         252.416         272.343         328.687         461.406         491.376         502.643         556.000         561.022         690.650         840.583         853.018
  323         214.263         249.820         273.786         330.819         460.428         491.859         501.351         556.868         557.918         694.183         839.737         852.952
  324         212.235         247.214         275.205         332.934         459.456         492.227         500.089         552.797         559.842         697.677         838.864         852.861
  325         210.192         244.598         276.601         335.032         458.491         492.452         498.857         548.839         561.774         701.132         837.965         852.744
  326         208.136         241.971         277.973         337.113         457.532         492.499         497.656         545.029         563.711         704.547         837.040         852.602
  327         206.067         239.335         279.319         339.176         456.580         492.324         496.486         541.410         565.654         707.923         836.090         852.435
  328         203.984         236.689         280.640         341.221         455.636         491.878         495.347         538.033         567.601         711.259         835.114         852.243
  329         201.888         234.034         281.933         343.249         454.699         491.104         494.239         534.957         569.553         714.556         834.113         852.026
  330         199.779         231.370         283.199         345.259         453.770         489.946         493.164         532.236         571.508         717.812         833.087         851.785
  331         197.658         228.697         284.435         347.251         452.849         488.360         492.121         529.917         573.465         721.028         832.037         851.521
  332         195.524         226.015         285.641         349.225         451.937         486.321         491.111         528.026         575.425         724.204         830.963         851.232
  333         193.377         223.324         286.816         351.181         451.034         483.831         490.134         526.563         577.387         727.339         829.866         850.921
  334         191.217         220.626         287.957         353.119         450.140         480.918         489.189         525.500         579.349         730.434         828.745         850.587
  335         189.046         217.919         289.064         355.039         449.255         477.629         488.278         524.791         581.312         733.488         827.602         850.230
  336         186.862         215.204         290.133         356.942         448.379         474.022         487.400         524.382         583.274         736.502         826.436         849.851
  337         184.667         212.482         291.164         358.826         447.513         470.152         486.555         524.220         585.236         739.474         825.249         849.450
  338         182.460         209.752         292.153         360.692         446.657         466.069         485.744         524.256         587.196         742.406         824.041         849.028
  339         180.241         207.014         293.099         362.541         445.812         461.816         484.965         524.451         589.154         745.297         822.812         848.586
  340         178.010         204.270         293.997         364.372         444.976         457.428         484.220         524.771         591.110         748.147         821.562         848.122
  341         175.769         201.519         294.844         366.185         444.151         452.937         483.509         525.191         593.062         750.956         820.293         847.639
  342         173.516         198.761         295.636         367.980         443.336         448.366         482.830         525.689         595.011         753.724         819.005         847.136
  343         171.252         195.996         296.368         369.758         442.533         443.736         482.184         526.249         596.955         756.451         817.699         846.614
  344         168.977         193.225         297.036         371.519         439.065         441.740         481.570         526.860         598.895         759.137         816.375         846.073
  345         166.691         190.447         297.633         373.262         434.370         440.958         480.988         527.510         600.829         761.781         815.033         845.513
  346         164.395         187.664         298.152         374.989         429.666         440.188         480.438         528.191         602.757         764.385         813.676         844.937
  347         162.088         184.875         298.585         376.698         424.968         439.428         479.920         528.897         604.678         766.947         812.302         844.342
  348         159.771         182.080         298.923         378.391         420.290         438.681         479.432         529.622         606.592         769.469         810.914         843.731
  349         157.444         179.279         299.155         380.067         415.648         437.945         478.975         530.362         608.499         771.949         809.511         843.104
  350         155.106         176.473         299.268         381.727         411.058         437.220         478.548         531.113         610.398         774.388         808.094         842.461
  351         152.759         173.662         299.250         383.370         406.537         436.507         478.150         531.872         612.287         776.786         806.665         841.803
  352         150.403         170.846         299.083         384.998         402.102         435.807         477.780         532.636         614.168         779.143         805.224         841.130
  353         148.036         168.025         298.751         386.610         397.775         435.118         477.439         533.404         616.039         781.458         803.772         840.443
  354         145.661         165.199         298.235         388.206         393.576         434.441         477.124         534.173         617.899         783.733         802.310         839.743
  355         143.276         162.368         297.512         389.529         389.787         433.776         476.836         534.941         619.748         785.967         800.838         839.030
  356         140.882         159.534         296.562         385.656         391.352         433.123         476.573         535.708         621.586         788.159         799.358         838.304
  357         138.479         156.694         295.362         381.982         392.903         432.483         476.335         536.472         623.412         790.311         797.871         837.567
  358         136.068         153.851         293.890         378.528         394.439         431.854         476.121         537.231         625.226         792.422         796.377         836.818
  359         133.648         151.004         292.128         375.316         395.961         431.238         475.930         537.986         627.026         794.492         794.878         836.059
  360         131.219         148.153         290.061         372.363         397.468         430.634         475.760         538.734         628.813         793.374         796.521         835.291
  361         128.782         145.298         287.676         369.678         398.961         430.043         475.611         539.475         630.585         791.867         798.509         834.513
  362         126.338         142.439         284.972         367.268         400.439         429.464         475.482         540.209         632.343         790.357         800.457         833.726
  363         123.885         139.577         281.949         365.130         401.904         428.897         475.372         540.935         634.085         788.846         802.364         832.932
  364         121.424         136.712         278.616         363.259         403.355         428.343         475.280         541.651         635.812         787.335         804.230         832.131
  365         118.956         133.843         274.987         361.639         404.792         427.801         475.204         542.358         637.522         785.825         806.056         831.323
  366         116.480         130.972         271.080         360.255         406.215         427.272         475.143         543.056         639.214         784.318         807.841         830.510
  367         113.997         128.097         266.916         359.086         407.625         426.755         475.097         543.743         640.889         782.813         809.585         829.691
  368         111.507         125.220         262.516         358.111         409.021         426.250         475.065         544.419         642.546         781.314         811.290         828.869
  369         109.010         122.339         257.903         357.308         410.403         425.758         475.044         545.083         644.183         779.820         812.954         828.043
  370         106.506         119.456         253.098         356.657         411.771         425.278         475.035         545.736         645.801         778.333         814.577         827.215
  371         103.996         116.571         248.121         356.139         413.124         424.810         475.035         546.378         647.398         776.855         816.161         826.385
  372         101.479         113.683         242.989         355.736         414.464         424.355         475.045         547.006         648.975         775.387         817.704         825.554
  373          98.955         110.793         237.721         355.432         415.789         423.912         475.062         547.623         650.529         773.929         819.207         824.724
  374          96.426         107.900         232.329         355.214         417.099         423.481         475.086         548.226         652.061         772.485         820.670         823.894
  375          93.891         105.006         226.827         355.068         418.394         423.062         475.115         548.816         653.570         771.054         822.093         823.066
  376          91.349         102.109         221.227         354.985         419.674         422.656         475.149         549.392         655.054         769.638         822.241         823.476
  377          88.802          99.211         215.538         354.954         420.937         422.262         475.187         549.955         656.514         768.240         821.420         824.820
  378          86.250          96.310         209.769         354.968         421.880         422.184         475.227         550.504         657.949         766.859         820.603         826.123
  379          83.692          93.408         203.928         355.019         421.510         423.414         475.269         551.038         659.356         765.498         819.793         827.387
  380          81.129          90.504         198.022         355.102         421.152         424.626         475.311         551.558         660.737         764.159         818.989         828.611
  381          78.561          87.599         192.056         355.210         420.806         425.819         475.354         552.063         662.089         762.841         818.193         829.796
  382          75.988          84.692         186.036         355.340         420.472         426.994         475.395         552.554         663.412         761.548         817.406         830.941
  383          73.411          81.783         179.967         355.487         420.150         428.148         475.435         553.030         664.705         760.281         816.629         832.047
  384          70.829          78.873         173.852         355.648         419.839         429.282         475.473         553.490         665.966         759.040         815.863         833.113
  385          68.242          75.962         167.696         355.819         419.541         430.393         475.508         553.935         667.196         757.829         815.110         834.140
  386          65.652          73.050         161.501         355.998         419.254         431.482         475.539         554.364         668.392         756.647         814.370         835.128
  387          63.057          70.136         155.271         356.182         418.979         432.547         475.566         554.778         669.555         755.497         813.646         836.076
  388          60.459          67.221         149.008         356.370         418.716         433.586         475.588         555.176         670.682         754.380         812.937         836.985
  389          57.857          64.306         142.716         356.559         418.464         434.599         475.606         555.558         671.772         753.298         812.245         837.855
  390          55.251          61.389         136.395         356.748         418.224         435.585         475.618         555.924         672.826         752.251         811.572         838.686
  391          52.642          58.471         130.049         356.935         417.996         436.541         475.626         556.273         673.840         751.242         810.919         839.478
  392          50.030          55.553         123.679         357.119         417.778         437.467         475.628         556.606         674.815         750.272         810.287         840.231
  393          47.414          52.633         117.286         357.299         417.573         438.361         475.625         556.923         675.749         749.343         809.678         840.945
  394          44.796          49.713         110.874         357.474         417.378         439.221         475.616         557.224         676.642         748.454         809.092         841.621
  395          42.175          46.793         104.442         357.642         417.195         440.046         475.603         557.507         677.490         747.609         808.531         842.257
  396          39.552          43.871          97.993         357.804         417.024         440.833         475.585         557.774         678.295         746.808         807.996         842.855
  397          36.926          40.949          91.529         357.958         416.863         441.583         475.562         558.024         679.054         746.053         807.489         843.413
  398          34.298          38.026          85.049         358.104         416.714         442.291         475.536         558.257         679.766         745.344         807.011         843.934
  399          31.667          35.103          78.556         358.242         416.576         442.957         475.507         558.473         680.431         744.682         806.562         844.415
  400          29.035          32.179          72.051         358.369         416.450         443.579         475.476         558.673         681.047         744.070         806.145         844.858
  401          26.401          29.255          65.535         358.488         416.334         444.155         475.444         558.855         681.613         743.507         805.760         845.262
  402          23.766          26.331          59.009         358.596         416.229         444.683         475.410         559.019         682.128         742.995         805.408         845.628
  403          21.129          23.406          52.475         358.693         416.136         445.161         475.377         559.167         682.592         742.535         805.090         845.955
  404          18.490          20.481          45.932         358.780         416.053         445.588         475.345         559.297         683.004         742.127         804.808         846.243
  405          15.851          17.556          39.383         358.855         415.982         445.962         475.315         559.410         683.362         741.771         804.561         846.493
  406          13.211          14.630          32.828         358.920         415.922         446.281         475.288         559.506         683.666         741.470         804.351         846.705
  407          10.569          11.704          26.268         358.972         415.872         446.543         475.265         559.585         683.916         741.222         804.178         846.878
  408           7.928           8.778          19.704         359.014         415.834         446.749         475.246         559.646         684.110         741.030         804.043         847.013
  409           5.285           5.852          13.138         359.043         415.806         446.897         475.232         559.689         684.250         740.892         803.947         847.109
  410           2.643           2.926           6.569         359.061         415.790         446.986         475.223         559.715         684.334         740.809         803.889         847.166
  411           0.000           0.000           0.000         359.067         415.785         447.015         475.220         559.724         684.362         740.781         803.869         847.186
  412           2.885           2.917           5.284         359.068         415.768         447.053         475.218         559.713         684.359         740.781         803.867         847.179
  413           5.770           5.834          10.568         359.071         415.718         447.167         475.212         559.682         684.351         740.783         803.860         847.160
  414           8.656           8.751          15.851         359.076         415.635         447.354         475.201         559.629         684.337         740.784         803.848         847.129
  415          11.542          11.667          21.132         359.083         415.522         447.615         475.187         559.556         684.318         740.787         803.831         847.084
  416          14.429          14.584          26.412         359.092         415.380         447.947         475.167         559.461         684.293         740.791         803.809         847.027
  417          17.317          17.500          31.689         359.103         415.211         448.347         475.144         559.346         684.263         740.795         803.782         846.957
  418          20.207          20.417          36.963         359.116         415.018         448.813         475.117         559.210         684.227         740.800         803.751         846.875
  419          23.098          23.333          42.233         359.131         414.805         449.341         475.085         559.053         684.186         740.805         803.715         846.780
  420          25.990          26.248          47.500         359.148         414.573         449.929         475.049         558.875         684.140         740.812         803.673         846.672
  421          28.884          29.163          52.762         359.167         414.326         450.573         475.010         558.677         684.088         740.819         803.627         846.552
  422          31.780          32.078          58.019         359.189         414.067         451.270         474.966         558.458         684.031         740.827         803.576         846.418
  423          34.679          34.993          63.271         359.213         413.798         452.016         474.918         558.219         683.968         740.835         803.520         846.272
  424          37.579          37.907          68.517         359.239         413.523         452.810         474.866         557.960         683.900         740.844         803.459         846.114
  425          40.483          40.820          73.756         359.268         413.243         453.648         474.810         557.681         683.827         740.854         803.392         845.942
  426          43.388          43.733          78.989         359.299         412.962         454.527         474.750         557.383         683.748         740.864         803.321         845.758
  427          46.297          46.646          84.214         359.332         412.681         455.444         474.687         557.064         683.664         740.875         803.244         845.561
  428          49.209          49.558          89.431         359.368         412.403         456.398         474.619         556.726         683.575         740.887         803.162         845.351
  429          52.123          52.469          94.640         359.407         412.129         457.386         474.548         556.369         683.481         740.899         803.075         845.129
  430          55.041          55.379          99.841         359.449         411.860         458.405         474.474         555.993         683.381         740.912         802.983         844.893
  431          57.962          58.289         105.031         359.494         411.599         459.455         474.395         555.598         683.276         740.925         802.885         844.645
  432          60.887          61.198         110.213         359.541         411.347         460.533         474.313         555.184         683.167         740.938         802.782         844.384
  433          63.815          64.106         115.384         359.591         411.105         461.637         474.228         554.752         683.052         740.952         802.674         844.110
  434          66.747          67.013         120.544         359.645         410.873         462.765         474.139         554.302         682.932         740.967         802.560         843.824
  435          69.682          69.920         125.693         359.702         410.653         463.917         474.047         553.834         682.807         740.981         802.440         843.524
  436          72.621          72.825         130.830         359.762         410.446         465.091         473.951         553.348         682.677         740.997         802.315         843.212
  437          75.564          75.730         135.956         359.826         410.253         466.285         473.853         552.846         682.543         741.012         802.184         842.886
  438          78.511          78.633         141.068         359.893         410.073         467.498         473.751         552.326         682.403         741.028         802.047         842.548
  439          81.461          81.535         146.168         359.964         409.908         468.730         473.646         551.790         682.259         741.044         801.905         842.197
  440          84.416          84.437         151.254         360.039         409.758         469.978         473.539         551.237         682.110         741.060         801.756         841.833
  441          87.337          87.374         156.326         360.118         409.624         471.242         473.428         550.668         681.956         741.076         801.602         841.455
  442          90.235          90.336         161.384         360.200         409.505         472.521         473.315         550.084         681.798         741.092         801.441         841.065
  443          93.133          93.302         166.427         360.287         409.402         473.199         473.814         549.484         681.635         741.109         801.275         840.662
  444          96.029          96.271         171.454         360.378         409.316         473.081         475.119         548.869         681.468         741.125         801.102         840.246
  445          98.924          99.245         176.466         360.474         409.246         472.960         476.437         548.239         681.296         741.142         800.924         839.817
  446         101.817         102.221         181.462         360.574         409.192         472.836         477.766         547.596         681.120         741.158         800.738         839.374
  447         104.709         105.202         186.441         360.679         409.156         472.711         479.104         546.938         680.940         741.175         800.547         838.919
  448         107.599         108.186         191.402         360.788         409.135         472.583         480.453         546.267         680.755         741.191         800.349         838.450
  449         110.488         111.173         196.347         360.903         409.132         472.453         481.810         545.583         680.567         741.207         800.145         837.969
  450         113.375         114.163         201.273         361.022         409.145         472.322         483.175         544.886         680.374         741.223         799.934         837.474
  451         116.260         117.157         206.181         361.147         409.176         472.188         484.547         544.176         680.177         741.238         799.716         836.966
  452         119.144         120.153         211.070         361.277         409.222         472.053         485.926         543.455         679.976         741.253         799.492         836.445
  453         122.026         123.152         215.940         361.413         409.286         471.916         487.311         542.722         679.772         741.268         799.261         835.911
  454         124.906         126.154         220.790         361.554         409.365         471.777         488.700         541.978         679.563         741.283         799.024         835.364
  455         127.783         129.158         225.620         361.701         409.461         471.637         490.094         541.223         679.351         741.297         798.779         834.803
  456         130.659         132.164         230.429         361.854         409.574         471.496         491.492         540.459         679.135         741.310         798.528         834.230
  457         133.533         135.173         235.218         362.012         409.702         471.353         492.893         539.684         678.916         741.323         798.269         833.643
  458         136.405         138.182         239.985         362.177         409.846         471.210         494.296         538.900         678.693         741.335         798.004         833.043
  459         139.275         141.194         244.731         362.348         410.006         471.065         495.702         538.107         678.467         741.347         797.731         832.429
  460         142.142         144.206         249.455         362.526         410.182         470.920         497.108         537.305         678.238         741.358         797.451         831.803
  461         145.007         147.219         254.156         362.710         410.373         470.773         498.516         536.495         678.006         741.368         797.164         831.163
  462         147.869         150.233         258.834         362.901         410.579         470.626         499.923         535.678         677.770         741.377         796.870         830.510
  463         150.729         153.248         263.489         363.098         410.800         470.479         501.330         534.853         677.532         741.386         796.569         829.843
  464         153.587         156.262         268.120         363.303         411.036         470.331         502.736         534.022         677.291         741.393         796.260         829.164
  465         156.442         159.276         272.727         363.514         411.287         470.182         504.140         533.185         677.047         741.400         795.944         828.471
  466         159.294         162.289         277.309         363.733         411.551         470.033         505.542         532.341         676.800         741.405         795.620         827.765
  467         162.143         165.301         281.867         363.959         411.830         469.885         506.942         531.492         676.550         741.410         795.290         827.046
  468         164.990         168.311         286.400         364.193         412.123         469.736         508.338         530.639         676.299         741.413         794.951         826.314
  469         167.833         171.320         290.907         364.434         412.430         469.587         509.731         529.780         676.045         741.415         794.605         825.568
  470         170.674         174.327         295.388         364.683         412.750         469.438         511.120         528.918         675.788         741.416         794.252         824.809
  471         173.512         177.331         299.843         364.940         413.083         469.289         512.504         528.052         675.530         741.416         793.891         824.037
  472         176.346         180.332         304.270         365.205         413.430         469.141         513.883         527.183         675.270         741.415         793.523         823.252
  473         179.177         183.330         308.671         365.478         413.789         468.993         515.256         526.311         675.007         741.412         793.147         822.453
  474         182.004         186.324         313.044         365.760         414.161         468.846         516.624         525.436         674.743         741.408         792.763         821.642
  475         184.828         189.314         317.390         366.050         414.545         468.699         517.984         524.560         674.478         741.402         792.372         820.817
  476         187.649         192.299         321.706         366.350         414.942         468.553         519.338         523.682         674.210         741.395         791.974         819.979
  477         190.466         195.278         325.994         366.658         415.350         468.408         520.685         522.803         673.942         741.386         791.568         819.129
  478         193.279         198.253         330.252         366.976         415.770         468.263         521.923         522.024         673.672         741.376         791.154         818.265
  479         196.088         201.221         334.480         367.304         416.202         468.119         521.043         523.354         673.401         741.364         790.733         817.388
  480         198.894         204.182         338.677         367.643         416.646         467.977         520.163         524.676         673.129         741.350         790.304         816.498
  481         201.695         207.137         342.841         367.994         417.100         467.835         519.284         525.989         672.856         741.335         789.868         815.595
  482         204.492         210.084         346.970         368.358         417.566         467.694         518.405         527.293         672.582         741.317         789.424         814.680
  483         207.285         213.023         351.062         368.739         418.042         467.555         517.528         528.587         672.308         741.299         788.973         813.751
  484         210.073         215.954         355.109         369.144         418.529         467.416         516.652         529.871         672.034         741.278         788.515         812.810
  485         212.857         218.876         359.097         369.587         419.026         467.279         515.778         531.144         671.759         741.255         788.049         811.856
  486         215.636         221.788         362.983         370.109         419.534         467.143         514.906         532.407         671.484         741.230         787.576         810.889
  487         218.411         224.690         366.596         370.882         420.051         467.009         514.037         533.659         671.208         741.204         787.096         809.910
  488         221.180         227.582         369.195         372.648         420.579         466.876         513.170         534.899         670.933         741.175         786.609         808.918
  489         223.945         230.463         370.328         375.858         421.116         466.744         512.307         536.127         670.659         741.145         786.115         807.914
  490         226.704         233.333         370.966         379.539         421.662         466.614         511.447         537.344         670.385         741.112         785.613         806.897
  491         229.458         236.190         371.490         383.313         422.218         466.485         510.591         538.548         670.111         741.077         785.105         805.868
  492         232.207         239.035         371.979         387.099         422.782         466.357         509.738         539.740         669.838         741.040         784.590         804.827
  493         234.950         241.868         372.457         390.873         423.356         466.231         508.890         540.919         669.566         741.001         784.068         803.773
  494         237.688         244.687         372.935         394.624         423.938         466.107         508.046         542.085         669.295         740.959         783.539         802.708
  495         240.419         247.492         373.415         398.350         424.529         465.984         507.207         543.238         669.026         740.916         783.004         801.630
  496         243.145         250.282         373.900         402.046         425.128         465.862         506.372         544.378         668.757         740.870         782.463         800.541
  497         245.864         253.058         374.393         405.713         425.734         465.742         505.543         545.503         668.491         740.821         781.915         799.439
  498         248.577         255.819         374.893         409.347         426.349         465.623         504.718         546.615         668.226         740.771         781.361         798.327
  499         251.284         258.564         375.401         412.950         426.971         465.506         503.899         547.714         667.963         740.718         780.800         797.202
  500         253.984         261.292         375.918         416.521         427.600         465.390         503.085         548.798         667.702         740.662         780.234         796.066
  501         256.677         264.004         376.443         420.058         428.236         465.275         502.276         549.867         667.444         740.604         779.662         794.919
  502         259.363         266.699         376.977         423.562         428.879         465.161         501.473         550.923         667.188         740.544         779.084         793.760
  503         262.042         269.377         377.521         427.032         429.528         465.049         500.676         551.964         666.935         740.481         778.501         792.591
  504         264.714         272.036         378.074         430.184         430.469         464.938         499.884         552.990         666.685         740.416         777.912         791.410
  505         267.378         274.678         378.636         430.845         433.871         464.828         499.098         554.002         666.438         740.348         777.318         790.219
  506         270.035         277.300         379.208         431.512         437.239         464.719         498.318         554.999         666.194         740.278         776.719         789.017
  507         272.683         279.904         379.789         432.183         440.572         464.611         497.543         555.981         665.953         740.205         776.115         787.805
  508         275.324         282.488         380.380         432.860         443.870         464.503         496.775         556.948         665.717         740.130         775.507         786.582
  509         277.956         285.053         380.980         433.541         447.134         464.396         496.012         557.901         665.484         740.052         774.893         785.350
  510         280.579         287.598         381.590         434.226         450.362         464.290         495.255         558.839         665.255         739.972         774.276         784.107
  511         283.194         290.122         382.210         434.914         453.555         464.185         494.503         559.762         665.031         739.889         773.654         782.854
  512         285.800         292.626         382.839         435.606         456.712         464.080         493.758         560.670         664.812         739.803         773.028         781.592
  513         288.397         295.109         383.477         436.300         459.833         463.975         493.018         561.563         664.597         739.715         772.399         780.321
  514         290.984         297.571         384.125         436.996         462.918         463.870         492.284         562.442         664.387         739.625         771.766         779.040
  515         293.561         300.011         384.783         437.694         463.765         465.966         491.556         563.306         664.182         739.531         771.129         777.751
  516         296.129         302.430         385.451         438.393         463.659         468.976         490.834         564.156         663.983         739.436         770.490         776.452
  517         298.687         304.828         386.127         439.093         463.554         471.948         490.121         564.991         663.790         739.338         769.847         775.145
  518         301.234         307.203         386.814         439.793         463.448         474.879         489.416         565.811         663.603         739.237         769.202         773.830
  519         303.771         309.557         387.509         440.492         463.341         477.763         488.726         566.618         663.422         739.134         768.555         772.507
  520         306.296         311.889         388.214         441.190         463.233         480.588         488.064         567.410         663.247         739.028         767.905         771.175
  521         308.811         314.198         388.929         441.886         463.124         483.293         487.489         568.188         663.079         738.920         767.253         769.837
  522         311.314         316.485         389.652         442.580         463.014         485.379         487.500         568.952         662.918         738.810         766.600         768.491
  523         313.805         318.750         390.384         443.270         462.902         485.489         489.454         569.703         662.765         738.697         765.945         767.137
  524         316.285         320.993         391.126         443.957         462.788         484.934         492.039         570.440         662.619         738.582         765.288         765.777
  525         318.752         323.214         391.876         444.639         462.672         484.290         494.680         571.164         662.480         738.464         764.411         764.631
  526         321.206         325.412         392.636         445.316         462.554         483.622         497.310         571.874         662.350         738.345         763.038         763.973
  527         323.648         327.588         393.403         445.986         462.433         482.946         499.915         572.571         662.229         738.223         761.660         763.315
  528         326.077         329.742         394.180         446.650         462.310         482.266         502.488         573.256         662.116         738.099         760.275         762.656
  529         328.492         331.873         394.964         447.306         462.183         481.584         505.028         573.928         662.011         737.974         758.886         761.998
  530         330.893         333.983         395.757         447.953         462.053         480.901         507.533         574.587         661.916         737.846         757.491         761.340
  531         333.280         336.071         396.558         448.592         461.919         480.217         510.002         575.234         661.831         737.716         756.092         760.682
  532         335.653         338.137         397.367         449.220         461.782         479.533         512.436         575.869         661.756         737.585         754.689         760.026
  533         338.011         340.182         398.183         449.837         461.640         478.848         514.834         576.492         661.690         737.452         753.281         759.371
  534         340.354         342.205         399.007         450.442         461.493         478.162         517.195         577.103         661.635         737.317         751.870         758.717
  535         342.681         344.207         399.837         451.035         461.341         477.476         519.520         577.702         661.591         737.181         750.456         758.065
  536         344.993         346.189         400.675         451.615         461.185         476.787         521.808         578.290         661.558         737.044         749.039         757.415
  537         347.289         348.149         401.519         452.180         461.022         476.098         524.060         578.867         661.536         736.905         747.619         756.768
  538         349.568         350.089         402.370         452.730         460.853         475.406         526.274         579.432         661.526         736.766         746.197         756.123
  539         351.830         352.008         403.226         453.264         460.679         474.712         528.452         579.986         661.528         736.625         744.774         755.482
  540         353.907         354.075         404.088         453.781         460.497         474.016         530.593         580.530         661.542         736.484         743.349         754.843
  541         355.787         356.303         404.956         454.281         460.308         473.317         532.697         581.062         661.569         736.342         741.923         754.209
  542         357.647         358.513         405.828         454.763         460.112         472.615         534.764         581.584         661.609         736.199         740.496         753.578
  543         359.487         360.704         406.705         455.225         459.907         471.910         536.794         582.094         661.663         736.057         739.070         752.951
  544         361.309         362.877         407.586         455.668         459.695         471.202         538.787         582.595         661.730         735.914         737.644         752.329
  545         363.111         365.031         408.470         456.090         459.473         470.489         540.742         583.084         661.811         735.771         736.219         751.712
  546         364.895         367.166         409.358         456.491         459.243         469.773         542.661         583.562         661.906         734.794         735.629         751.100
  547         366.661         369.281         410.248         456.870         459.002         469.053         544.542         584.030         662.016         733.372         735.487         750.493
  548         368.409         371.375         411.140         457.226         458.752         468.329         546.385         584.487         662.141         731.952         735.346         749.893
  549         370.139         373.449         412.034         457.559         458.491         467.601         548.192         584.933         662.281         730.534         735.206         749.298
  550         371.851         375.503         412.928         457.869         458.219         466.868         549.961         585.367         662.437         729.120         735.067         748.710
  551         373.546         377.535         413.822         457.936         458.154         466.131         551.692         585.791         662.610         727.709         734.930         748.128
  552         375.224         379.545         414.716         457.641         458.415         465.390         553.386         586.203         662.798         726.302         734.794         747.554
  553         376.886         381.534         415.608         457.333         458.650         464.644         555.042         586.603         663.003         724.899         734.661         746.987
  554         378.530         383.500         416.498         457.013         458.860         463.895         556.661         586.991         663.225         723.502         734.530         746.427
  555         380.159         385.443         417.385         456.679         459.044         463.141         558.242         587.367         663.464         722.110         734.401         745.876
  556         381.771         387.364         418.267         456.332         459.202         462.385         559.786         587.730         663.721         720.724         734.275         745.333
  557         383.367         389.261         419.143         455.970         459.334         461.625         561.292         588.081         663.996         719.345         734.153         744.798
  558         384.947         391.134         420.012         455.593         459.438         460.863         562.760         588.418         664.288         717.972         734.034         744.272
  559         386.511         392.984         420.873         455.201         459.516         460.099         564.191         588.741         664.600         716.608         733.919         743.756
  560         388.060         394.808         421.724         454.793         459.335         459.567         565.583         589.050         664.930         715.251         733.808         743.249
  561         389.593         396.608         422.564         454.369         458.571         459.591         566.938         589.344         665.279         713.903         733.702         742.752
  562         391.111         398.383         423.389         453.928         457.808         459.589         568.256         589.623         665.648         712.564         733.601         742.265
  563         392.614         400.133         424.197         453.470         457.049         459.559         569.535         589.887         666.036         711.235         733.505         741.788
  564         394.101         401.857         424.987         452.994         456.295         459.502         570.777         590.134         666.444         709.916         733.414         741.322
  565         395.573         403.555         425.754         452.500         455.550         459.419         571.980         590.364         666.872         708.607         733.329         740.867
  566         397.030         405.227         426.495         451.987         454.815         459.309         573.147         590.577         667.320         707.310         733.251         740.422
  567         398.471         406.873         427.206         451.455         454.095         459.174         574.275         590.772         667.788         706.024         733.180         739.990
  568         399.897         408.492         427.881         450.903         453.394         459.012         575.366         590.948         668.278         704.751         733.115         739.569
  569         401.308         410.083         428.515         450.331         452.717         458.825         576.419         591.105         668.788         703.490         733.058         739.160
  570         402.703         411.648         429.100         449.738         452.070         458.614         577.434         591.241         669.319         702.242         733.009         738.762
  571         404.082         413.186         429.629         449.124         451.461         458.378         578.413         591.357         669.872         701.008         732.968         738.378
  572         405.446         414.696         430.093         448.488         450.897         458.118         579.353         591.451         670.445         699.789         732.936         738.005
  573         406.793         416.178         430.482         447.830         450.389         457.835         580.257         591.524         671.040         698.584         732.912         737.646
  574         408.123         417.632         430.785         447.150         449.945         457.530         581.123         591.573         671.657         697.394         732.898         737.299
  575         409.436         419.059         430.994         446.447         449.574         457.203         581.953         591.599         672.295         696.219         732.893         736.965
  576         410.732         420.457         431.099         445.720         449.285         456.856         582.746         591.601         672.955         695.061         732.898         736.644
  577         412.010         421.828         431.093         444.970         449.084         456.489         583.502         591.577         673.636         693.918         732.913         736.337
  578         413.269         423.170         430.972         444.195         448.974         456.105         584.222         591.528         674.339         692.793         732.939         736.043
  579         414.508         424.484         430.736         443.396         448.955         455.703         584.905         591.453         675.064         691.685         732.976         735.762
  580         415.727         425.770         430.389         442.572         449.022         455.286         585.553         591.351         675.810         690.595         733.024         735.495
  581         416.924         427.027         429.936         441.723         449.169         454.854         586.165         591.221         676.578         689.523         733.084         735.241
  582         418.098         428.257         429.386         440.848         449.387         454.411         586.742         591.063         677.368         688.469         733.155         735.001
  583         419.248         428.748         429.458         439.947         449.667         453.958         587.284         590.876         678.179         687.434         733.239         734.774
  584         420.371         428.032         430.631         439.020         449.997         453.498         587.792         590.659         679.011         686.418         733.334         734.561
  585         421.466         427.246         431.776         438.067         450.368         453.033         588.265         590.412         679.865         685.421         733.442         734.361
  586         422.529         426.399         432.893         437.086         450.771         452.567         588.704         590.134         680.739         684.445         733.563         734.175
  587         423.559         425.499         433.983         436.079         451.199         452.102         589.111         589.825         681.635         683.488         733.696         734.002
  588         424.550         424.550         435.045         435.045         451.645         451.645         589.484         589.484         682.551         682.551         733.843         733.843
