# Phonon frequencies in cm-1
    1          32.541          32.541          38.336          38.336          42.891          42.891          47.641          47.641          57.256          57.256          59.206          59.206          59.972          59.972          66.061          66.061          71.233          71.233          78.140          78.140          82.346          82.346          85.572          85.572          90.439          90.439          91.348          91.348          91.920          91.920          98.229          98.229         106.985         106.985         108.914         108.914         121.579         121.579         132.115         132.115         138.492         138.492         146.797         146.797         162.769         162.769         172.288         172.288
    2          32.510          32.568          38.300          38.367          42.701          43.071          47.605          47.675          57.109          57.387          59.018          59.326          60.008          60.009          66.029          66.103          71.212          71.259          78.087          78.176          82.191          82.498          85.562          85.586          90.330          90.463          91.345          91.371          91.788          92.124          98.188          98.275         106.866         107.092         108.741         109.089         121.392         121.779         132.058         132.171         138.465         138.521         146.792         146.802         162.726         162.812         172.246         172.328
    3          32.475          32.591          38.258          38.391          42.500          43.240          47.566          47.705          56.953          57.484          58.819          59.349          60.081          60.143          66.005          66.153          71.196          71.290          78.016          78.193          82.032          82.645          85.558          85.602          90.162          90.406          91.313          91.383          91.826          92.356          98.153          98.327         106.738         107.181         108.575         109.262         121.220         121.991         131.999         132.226         138.442         138.552         146.786         146.807         162.683         162.853         172.203         172.366
    4          32.436          32.609          38.211          38.410          42.291          43.396          47.524          47.732          56.795          57.514          58.662          59.306          60.165          60.339          65.991          66.212          71.184          71.327          77.929          78.193          81.873          82.787          85.563          85.616          89.965          90.291          91.184          91.443          92.002          92.602          98.123          98.382         106.601         107.244         108.426         109.429         121.064         122.215         131.939         132.279         138.421         138.586         146.780         146.811         162.639         162.895         172.159         172.402
    5          32.392          32.623          38.159          38.422          42.073          43.539          47.480          47.756          56.636          57.437          58.595          59.235          60.253          60.558          65.986          66.279          71.177          71.370          77.826          78.175          81.714          82.923          85.576          85.624          89.760          90.138          91.046          91.516          92.232          92.855          98.101          98.443         106.456         107.269         108.307         109.589         120.924         122.449         131.878         132.330         138.403         138.623         146.774         146.815         162.595         162.936         172.112         172.437
    6          32.344          32.632          38.102          38.428          41.848          43.669          47.435          47.775          56.478          57.249          58.625          59.155          60.341          60.779          65.991          66.355          71.173          71.419          77.708          78.138          81.556          83.051          85.597          85.623          89.558          89.963          90.917          91.593          92.485          93.113          98.085          98.507         106.305         107.241         108.236         109.741         120.801         122.693         131.816         132.379         138.388         138.661         146.767         146.818         162.550         162.976         172.064         172.470
    7          32.292          32.637          38.041          38.427          41.615          43.783          47.388          47.790          56.322          56.986          58.718          59.075          60.426          60.993          66.006          66.438          71.173          71.474          77.575          78.084          81.400          83.174          85.607          85.624          89.367          89.774          90.800          91.671          92.751          93.371          98.077          98.574         106.147         107.155         108.217         109.882         120.698         122.945         131.754         132.425         138.377         138.702         146.760         146.821         162.504         163.016         172.014         172.501
    8          32.235          32.637          37.975          38.419          41.377          43.882          47.339          47.801          56.169          56.680          58.841          59.000          60.507          61.197          66.031          66.530          71.176          71.537          77.429          78.014          81.246          83.291          85.574          85.657          89.191          89.581          90.693          91.749          93.024          93.629          98.078          98.646         105.982         107.021         108.242         110.013         120.613         123.206         131.692         132.469         138.369         138.745         146.752         146.824         162.458         163.055         171.963         172.531
    9          32.174          32.633          37.905          38.404          41.132          43.965          47.289          47.807          56.020          56.348          58.932          58.976          60.585          61.387          66.067          66.630          71.183          71.606          77.271          77.927          81.096          83.403          85.518          85.691          89.037          89.389          90.596          91.827          93.300          93.883          98.088          98.720         105.812         106.855         108.296         110.131         120.549         123.473         131.628         132.510         138.365         138.789         146.745         146.826         162.412         163.094         171.910         172.559
   10          32.109          32.624          37.831          38.382          40.882          44.031          47.238          47.808          55.875          55.998          58.873          59.113          60.660          61.560          66.114          66.736          71.192          71.683          77.101          77.826          80.950          83.511          85.436          85.723          88.906          89.203          90.509          91.903          93.579          94.132          98.108          98.798         105.636         106.672         108.365         110.236         120.506         123.748         131.565         132.548         138.364         138.835         146.737         146.828         162.364         163.132         171.856         172.585
   11          32.040          32.610          37.753          38.352          40.628          44.079          47.186          47.804          55.636          55.735          58.825          59.244          60.733          61.716          66.172          66.849          71.203          71.767          76.922          77.711          80.808          83.616          85.328          85.747          88.801          89.026          90.431          91.978          93.858          94.373          98.140          98.878         105.454         106.478         108.443         110.329         120.483         124.027         131.502         132.584         138.367         138.883         146.729         146.829         162.317         163.170         171.800         172.610
   12          31.965          32.591          37.672          38.316          40.370          44.108          47.134          47.794          55.265          55.600          58.788          59.366          60.808          61.854          66.241          66.969          71.218          71.859          76.734          77.583          80.669          83.719          85.192          85.760          88.721          88.863          90.364          92.050          94.137          94.605          98.184          98.960         105.266         106.280         108.527         110.408         120.482         124.312         131.438         132.616         138.373         138.933         146.720         146.830         162.269         163.208         171.742         172.633
   13          31.886          32.568          37.587          38.272          40.108          44.120          47.081          47.780          54.886          55.471          58.765          59.471          60.886          61.973          66.321          67.093          71.234          71.958          76.538          77.445          80.535          83.822          85.029          85.757          88.664          88.713          90.309          92.121          94.415          94.826          98.242          99.045         105.073         106.080         108.613         110.473         120.502         124.602         131.375         132.645         138.384         138.984         146.711         146.830         162.220         163.245         171.683         172.654
   14          31.803          32.539          37.498          38.221          39.844          44.112          47.028          47.760          54.499          55.346          58.756          59.558          60.971          62.073          66.411          67.223          71.252          72.065          76.337          77.297          80.405          83.925          84.842          85.735          88.580          88.628          90.268          92.190          94.692          95.032          98.316          99.131         104.875         105.882         108.700         110.525         120.543         124.896         131.312         132.670         138.399         139.037         146.702         146.831         162.171         163.281         171.622         172.673
   15          31.714          32.505          37.405          38.162          39.578          44.085          46.975          47.735          54.107          55.228          58.760          59.621          61.064          62.153          66.511          67.357          71.272          72.178          76.132          77.142          80.279          84.029          84.634          85.690          88.460          88.610          90.242          92.257          94.967          95.222          98.405          99.219         104.673         105.686         108.788         110.565         120.605         125.193         131.249         132.692         138.418         139.091         146.693         146.830         162.121         163.317         171.560         172.691
   16          31.621          32.465          37.309          38.095          39.311          44.039          46.922          47.705          53.710          55.114          58.778          59.659          61.167          62.216          66.618          67.494          71.294          72.298          75.924          76.981          80.157          84.133          84.408          85.624          88.354          88.606          90.234          92.322          95.239          95.395          98.511          99.307         104.466         105.495         108.877         110.592         120.686         125.493         131.186         132.710         138.441         139.147         146.683         146.830         162.070         163.353         171.497         172.707
   17          31.522          32.420          37.208          38.021          39.043          43.975          46.868          47.670          53.308          55.006          58.810          59.672          61.279          62.261          66.733          67.634          71.317          72.423          75.715          76.815          80.039          84.168          84.239          85.536          88.257          88.613          90.245          92.384          95.509          95.549          98.633          99.396         104.256         105.309         108.965         110.607         120.786         125.796         131.124         132.724         138.468         139.204         146.674         146.828         162.019         163.388         171.432         172.721
   18          31.417          32.369          37.102          37.940          38.777          43.892          46.815          47.629          52.902          54.903          58.857          59.660          61.400          62.289          66.853          67.776          71.342          72.552          75.509          76.646          79.924          83.915          84.345          85.431          88.166          88.628          90.276          92.445          95.684          95.776          98.772          99.484         104.043         105.131         109.054         110.612         120.904         126.100         131.063         132.735         138.499         139.262         146.664         146.827         161.968         163.423         171.365         172.734
   19          31.307          32.312          36.990          37.850          38.513          43.792          46.763          47.584          52.493          54.805          58.916          59.625          61.526          62.302          66.978          67.920          71.367          72.684          75.307          76.475          79.812          83.653          84.450          85.313          88.077          88.649          90.327          92.504          95.799          96.039          98.926          99.571         103.828         104.962         109.143         110.608         121.038         126.407         131.002         132.741         138.534         139.321         146.654         146.825         161.916         163.457         171.297         172.745
   20          31.192          32.250          36.872          37.754          38.254          43.675          46.711          47.533          52.080          54.710          58.989          59.570          61.655          62.302          67.105          68.065          71.394          72.814          75.113          76.304          79.704          83.384          84.550          85.188          87.988          88.672          90.396          92.561          95.895          96.298          99.092          99.655         103.613         104.803         109.232         110.595         121.188         126.715         130.941         132.744         138.574         139.382         146.644         146.823         161.864         163.491         171.228         172.755
   21          31.070          32.181          36.744          37.649          38.001          43.542          46.659          47.478          51.665          54.618          59.073          59.495          61.787          62.289          67.233          68.212          71.422          72.938          74.935          76.133          79.598          83.109          84.631          85.074          87.896          88.698          90.482          92.615          95.974          96.553          99.268          99.736         103.400         104.656         109.321         110.574         121.353         127.023         130.882         132.744         138.617         139.443         146.633         146.820         161.811         163.525         171.158         172.763
   22          30.941          32.105          36.605          37.538          37.757          43.395          46.608          47.418          51.248          54.529          59.169          59.402          61.917          62.266          67.361          68.358          71.450          73.047          74.779          75.965          79.496          82.830          84.655          85.014          87.802          88.724          90.583          92.668          96.036          96.803          99.451          99.812         103.190         104.522         109.410         110.547         121.530         127.333         130.823         132.739         138.665         139.506         146.623         146.817         161.757         163.558         171.086         172.769
   23          30.806          32.022          36.452          37.418          37.526          43.234          46.558          47.354          50.829          54.441          59.274          59.294          62.045          62.234          67.487          68.504          71.480          73.130          74.659          75.800          79.396          82.549          84.580          85.049          87.704          88.749          90.697          92.718          96.083          97.048          99.639          99.879         102.986         104.403         109.501         110.515         121.720         127.642         130.765         132.731         138.716         139.570         146.612         146.813         161.703         163.590         171.013         172.773
   24          30.664          31.933          36.282          37.292          37.311          43.062          46.509          47.284          50.409          54.353          59.170          59.389          62.170          62.196          67.611          68.650          71.509          73.170          74.590          75.639          79.299          82.266          84.449          85.139          87.603          88.773          90.822          92.766          96.116          97.286          99.827          99.936         102.792         104.300         109.591         110.478         121.920         127.951         130.708         132.720         138.771         139.634         146.601         146.809         161.648         163.623         170.938         172.776
   25          30.514          31.836          36.094          37.113          37.158          42.879          46.460          47.211          49.988          54.264          59.032          59.511          62.152          62.289          67.731          68.795          71.539          73.157          74.585          75.484          79.205          81.982          84.299          85.249          87.498          88.795          90.956          92.812          96.136          97.519          99.977         100.013         102.612         104.216         109.683         110.437         122.130         128.259         130.651         132.706         138.830         139.700         146.590         146.805         161.593         163.654         170.863         172.778
   26          30.357          31.731          35.888          36.933          37.016          42.687          46.412          47.133          49.567          54.173          58.881          59.638          62.106          62.403          67.847          68.939          71.570          73.091          74.643          75.334          79.113          81.699          84.143          85.366          87.392          88.815          91.096          92.855          96.145          97.743         100.000         100.194         102.454         104.152         109.777         110.393         122.348         128.565         130.597         132.689         138.892         139.766         146.579         146.801         161.538         163.686         170.786         172.778
   27          30.192          31.618          35.666          36.769          36.868          42.488          46.365          47.051          49.147          54.077          58.718          59.769          62.060          62.510          67.958          69.081          71.600          72.985          74.750          75.190          79.024          81.418          83.986          85.486          87.285          88.831          91.242          92.896          96.142          97.958          99.998         100.368         102.321         104.109         109.871         110.348         122.574         128.870         130.543         132.669         138.957         139.833         146.568         146.796         161.482         163.717         170.708         172.776
   28          30.018          31.497          35.430          36.617          36.713          42.282          46.319          46.965          48.729          53.977          58.542          59.901          62.019          62.610          68.063          69.220          71.631          72.854          74.892          75.053          78.938          81.139          83.831          85.606          87.178          88.845          91.391          92.934          96.129          98.160          99.971         100.531         102.220         104.090         109.968         110.301         122.807         129.172         130.490         132.649         139.026         139.901         146.557         146.790         161.425         163.747         170.629         172.773
   29          29.836          31.366          35.185          36.476          36.551          42.072          46.272          46.875          48.313          53.870          58.356          60.030          61.984          62.701          68.161          69.355          71.662          72.711          74.924          75.056          78.855          80.864          83.679          85.724          87.074          88.855          91.543          92.969          96.107          98.346          99.918         100.682         102.156         104.094         110.066         110.254         123.045         129.470         130.439         132.627         139.097         139.969         146.546         146.785         161.368         163.777         170.549         172.768
   30          29.645          31.226          34.934          36.340          36.383          41.859          46.224          46.781          47.902          53.755          58.158          60.154          61.962          62.784          68.252          69.485          71.692          72.564          74.802          75.235          78.774          80.594          83.531          85.835          86.977          88.862          91.696          93.001          96.076          98.506          99.848         100.820         102.126         104.123         110.167         110.206         123.288         129.763         130.389         132.605         139.172         140.038         146.534         146.779         161.311         163.807         170.468         172.762
   31          29.444          31.076          34.678          36.209          36.209          41.644          46.173          46.683          47.499          53.630          57.950          60.267          61.956          62.859          68.336          69.609          71.723          72.419          74.688          75.422          78.697          80.330          83.389          85.934          86.892          88.866          91.849          93.030          96.037          98.626          99.780         100.945         102.130         104.176         110.159         110.270         123.534         130.050         130.341         132.586         139.249         140.108         146.523         146.773         161.253         163.837         170.385         172.754
   32          29.234          30.915          34.420          36.030          36.079          41.429          46.114          46.581          47.109          53.495          57.733          60.366          61.973          62.924          68.412          69.725          71.753          72.280          74.581          75.613          78.623          80.074          83.252          86.011          86.830          88.867          92.002          93.055          95.990          98.680          99.742         101.056         102.162         104.251         110.114         110.376         123.784         130.295         130.327         132.571         139.329         140.178         146.512         146.766         161.195         163.866         170.302         172.745
   33          29.013          30.743          34.162          35.846          35.950          41.214          46.031          46.475          46.748          53.347          57.506          60.446          62.017          62.980          68.480          69.830          71.783          72.150          74.483          75.805          78.552          79.827          83.122          86.051          86.804          88.864          92.154          93.077          95.937          98.648          99.762         101.155         102.217         104.347         110.070         110.486         124.037         130.250         130.591         132.565         139.410         140.249         146.500         146.760         161.137         163.894         170.218         172.735
   34          28.783          30.559          33.903          35.658          35.819          41.000          45.888          46.365          46.455          53.185          57.271          60.506          62.090          63.027          68.540          69.922          71.813          72.034          74.392          75.995          78.484          79.593          82.998          86.044          86.826          88.858          92.304          93.095          95.878          98.535          99.840         101.243         102.290         104.460         110.027         110.598         124.291         130.208         130.836         132.572         139.494         140.320         146.489         146.753         161.078         163.922         170.133         172.723
   35          28.543          30.362          33.645          35.466          35.686          40.790          45.638          46.251          46.276          53.010          57.028          60.548          62.190          63.064          68.592          69.996          71.842          71.934          74.308          76.179          78.418          79.375          82.882          85.995          86.890          88.849          92.451          93.109          95.813          98.365          99.956         101.323         102.376         104.589         109.988         110.715         124.546         130.168         131.054         132.602         139.580         140.391         146.478         146.745         161.018         163.950         170.047         172.710
   36          28.292          30.152          33.389          35.271          35.549          40.582          45.311          46.134          46.184          52.820          56.776          60.575          62.317          63.092          68.636          70.051          71.854          71.872          74.231          76.353          78.354          79.179          82.773          85.917          86.985          88.837          92.594          93.119          95.745          98.159         100.091         101.396         102.473         104.730         109.950         110.835         124.801         130.131         131.233         132.666         139.668         140.463         146.467         146.738         160.958         163.977         169.961         172.695
   37          28.031          29.928          33.133          35.075          35.408          40.379          44.957          46.012          46.129          52.614          56.518          60.591          62.464          63.110          68.672          70.082          71.794          71.900          74.162          76.513          78.288          79.012          82.672          85.822          87.097          88.823          92.734          93.124          95.674          97.933         100.236         101.465         102.578         104.880         109.916         110.959         125.055         130.097         131.365         132.771         139.757         140.535         146.456         146.731         160.898         164.004         169.874         172.680
   38          27.759          29.689          32.879          34.878          35.261          40.180          44.597          45.887          46.091          52.392          56.254          60.601          62.628          63.120          68.699          70.089          71.755          71.929          74.098          76.654          78.216          78.885          82.579          85.716          87.219          88.806          92.868          93.125          95.600          97.693         100.383         101.530         102.689         105.036         109.886         111.088         125.308         130.066         131.447         132.923         139.848         140.607         146.444         146.723         160.838         164.031         169.786         172.663
   39          27.477          29.436          32.626          34.680          35.107          39.987          44.241          45.757          46.062          52.154          55.983          60.608          62.804          63.120          68.719          70.072          71.736          71.958          74.041          76.769          78.135          78.808          82.494          85.606          87.347          88.786          92.996          93.120          95.524          97.447         100.529         101.594         102.805         105.196         109.859         111.221         125.558         130.040         131.484         133.113         139.940         140.679         146.433         146.715         160.777         164.057         169.697         172.644
   40          27.186          29.167          32.373          34.484          34.947          39.799          43.892          45.623          46.039          51.901          55.707          60.616          62.991          63.112          68.730          70.033          71.731          71.986          73.989          76.854          78.049          78.783          82.417          85.493          87.478          88.764          93.111          93.117          95.449          97.198         100.673         101.657         102.925         105.359         109.835         111.359         125.805         130.018         131.487         133.333         140.032         140.751         146.422         146.707         160.716         164.083         169.608         172.625
   41          26.884          28.883          32.120          34.289          34.778          39.616          43.554          45.484          46.020          51.633          55.427          60.628          63.095          63.184          68.734          69.977          71.734          72.015          73.942          76.906          77.963          78.809          82.348          85.378          87.612          88.739          93.097          93.228          95.373          96.950         100.813         101.720         103.047         105.522         109.816         111.502         126.047         130.002         131.465         133.572         140.126         140.823         146.411         146.699         160.655         164.108         169.518         172.604
   42          26.573          28.583          31.866          34.097          34.601          39.439          43.227          45.341          46.005          51.351          55.142          60.643          63.071          63.382          68.731          69.906          71.741          72.044          73.901          76.928          77.885          78.876          82.287          85.263          87.746          88.713          93.077          93.329          95.299          96.706         100.950         101.784         103.171         105.684         109.802         111.649         126.284         129.993         131.426         133.824         140.221         140.895         146.401         146.691         160.594         164.133         169.428         172.582
   43          26.252          28.267          31.610          33.908          34.416          39.268          42.913          45.192          45.994          51.055          54.855          60.664          63.038          63.583          68.721          69.825          71.745          72.073          73.863          76.925          77.819          78.976          82.233          85.149          87.880          88.685          93.052          93.415          95.227          96.470         101.082         101.849         103.295         105.844         109.791         111.802         126.512         129.992         131.374         134.082         140.316         140.967         146.390         146.683         160.532         164.157         169.338         172.559
   44          25.923          27.935          31.350          33.722          34.222          39.103          42.613          45.038          45.987          50.747          54.564          60.691          62.998          63.787          68.703          69.735          71.741          72.102          73.830          76.909          77.766          79.099          82.187          85.037          88.014          88.655          93.022          93.484          95.157          96.247         101.209         101.916         103.421         106.001         109.785         111.960         126.732         130.000         131.313         134.346         140.412         141.038         146.379         146.674         160.470         164.181         169.247         172.536
   45          25.584          27.588          31.087          33.540          34.020          38.943          42.327          44.879          45.983          50.427          54.272          60.723          62.952          63.992          68.679          69.640          71.726          72.132          73.800          76.887          77.723          79.240          82.148          84.926          88.147          88.624          92.987          93.529          95.090          96.043         101.331         101.984         103.546         106.154         109.784         112.122         126.940         130.019         131.244         134.611         140.508         141.110         146.369         146.666         160.408         164.204         169.156         172.511
   46          25.238          27.226          30.817          33.363          33.811          38.789          42.056          44.713          45.982          50.098          53.979          60.762          62.898          64.196          68.649          69.541          71.697          72.163          73.774          76.870          77.690          79.391          82.115          84.817          88.278          88.592          92.946          93.546          95.027          95.863         101.449         102.054         103.671         106.303         109.788         112.289         127.135         130.052         131.170         134.877         140.604         141.180         146.359         146.658         160.346         164.227         169.064         172.485
   47          24.884          26.849          30.539          33.190          33.596          38.640          41.801          44.539          45.984          49.761          53.686          60.807          62.839          64.400          68.613          69.437          71.651          72.194          73.751          76.861          77.665          79.549          82.089          84.711          88.407          88.559          92.902          93.528          94.967          95.714         101.563         102.125         103.795         106.448         109.797         112.461         127.314         130.099         131.090         135.143         140.700         141.251         146.348         146.650         160.284         164.250         168.973         172.458
   48          24.522          26.458          30.252          33.022          33.376          38.497          41.560          44.359          45.989          49.417          53.393          60.857          62.774          64.602          68.572          69.331          71.589          72.226          73.731          76.863          77.648          79.709          82.069          84.608          88.525          88.534          92.853          93.470          94.910          95.602         101.672         102.198         103.917         106.588         109.810         112.637         127.475         130.164         131.007         135.407         140.796         141.321         146.338         146.642         160.222         164.272         168.881         172.430
   49          24.153          26.053          29.954          32.858          33.152          38.359          41.335          44.170          45.997          49.068          53.102          60.913          62.703          64.801          68.526          69.223          71.511          72.260          73.714          76.879          77.640          79.869          82.055          84.508          88.490          88.658          92.800          93.370          94.858          95.529         101.777         102.273         104.039         106.722         109.828         112.818         127.616         130.247         130.920         135.670         140.892         141.390         146.329         146.634         160.159         164.293         168.790         172.401
   50          23.777          25.636          29.643          32.699          32.927          38.226          41.123          43.972          46.008          48.716          52.813          60.974          62.627          64.998          68.475          69.111          71.416          72.294          73.699          76.906          77.641          80.028          82.046          84.412          88.456          88.779          92.744          93.233          94.809          95.492         101.878         102.349         104.158         106.852         109.851         113.002         127.737         130.350         130.829         135.931         140.988         141.459         146.319         146.626         160.097         164.314         168.698         172.372
   51          23.394          25.207          29.318          32.544          32.702          38.098          40.925          43.764          46.021          48.362          52.527          61.040          62.546          65.190          68.421          68.998          71.307          72.329          73.687          76.942          77.654          80.183          82.041          84.321          88.421          88.897          92.686          93.062          94.764          95.485         101.975         102.426         104.276         106.976         109.878         113.190         127.838         130.472         130.736         136.190         141.083         141.527         146.309         146.618         160.035         164.335         168.607         172.342
   52          23.005          24.766          28.977          32.393          32.479          37.974          40.739          43.544          46.037          48.010          52.245          61.111          62.461          65.377          68.363          68.882          71.185          72.365          73.678          76.985          77.681          80.333          82.040          84.234          88.386          89.011          92.625          92.867          94.723          95.501         102.069         102.504         104.391         107.096         109.911         113.381         127.918         130.612         130.639         136.445         141.178         141.594         146.300         146.611         159.973         164.355         168.516         172.311
   53          22.611          24.315          28.619          32.247          32.259          37.855          40.565          43.313          46.055          47.661          51.969          61.185          62.372          65.559          68.304          68.763          71.052          72.402          73.672          77.029          77.724          80.478          82.043          84.151          88.353          89.121          92.562          92.654          94.684          95.535         102.159         102.582         104.504         107.211         109.947         113.575         127.980         130.541         130.770         136.699         141.272         141.660         146.291         146.603         159.910         164.374         168.425         172.280
   54          22.210          23.854          28.244          32.045          32.104          37.740          40.401          43.068          46.074          47.316          51.699          61.264          62.279          65.734          68.243          68.641          70.910          72.439          73.668          77.073          77.785          80.616          82.049          84.074          88.320          89.226          92.427          92.497          94.649          95.579         102.246         102.662         104.615         107.321         109.988         113.771         128.026         130.440         130.941         136.949         141.365         141.726         146.282         146.596         159.848         164.393         168.334         172.248
   55          21.804          23.384          27.850          31.837          31.965          37.630          40.246          42.810          46.094          46.978          51.436          61.345          62.183          65.901          68.183          68.517          70.761          72.476          73.667          77.112          77.865          80.747          82.058          84.002          88.288          89.326          92.193          92.432          94.617          95.631         102.331         102.742         104.724         107.427         110.033         113.970         128.057         130.337         131.125         137.195         141.457         141.790         146.273         146.589         159.787         164.411         168.244         172.215
   56          21.394          22.906          27.439          31.635          31.829          37.523          40.099          42.536          46.115          46.648          51.183          61.430          62.083          66.058          68.124          68.389          70.607          72.512          73.671          77.147          77.963          80.870          82.069          83.937          88.258          89.420          91.954          92.366          94.588          95.689         102.413         102.823         104.829         107.528         110.081         114.171         128.077         130.232         131.318         137.439         141.549         141.853         146.264         146.583         159.725         164.429         168.155         172.182
   57          20.978          22.419          27.010          31.441          31.696          37.420          39.958          42.248          46.135          46.329          50.939          61.517          61.980          66.203          68.069          68.259          70.449          72.548          73.678          77.178          78.077          80.984          82.081          83.877          88.229          89.508          91.713          92.300          94.561          95.749         102.494         102.904         104.932         107.626         110.133         114.373         128.088         130.125         131.519         137.678         141.640         141.916         146.256         146.577         159.663         164.446         168.066         172.148
   58          20.558          21.925          26.564          31.254          31.566          37.320          39.824          41.944          46.020          46.154          50.708          61.607          61.875          66.335          68.020          68.125          70.288          72.581          73.691          77.206          78.205          81.090          82.094          83.824          88.203          89.588          91.473          92.233          94.537          95.810         102.572         102.985         105.032         107.720         110.189         114.576         128.090         130.016         131.725         137.915         141.729         141.977         146.247         146.570         159.602         164.462         167.977         172.114
   59          20.133          21.425          26.102          31.074          31.439          37.224          39.693          41.625          45.724          46.171          50.490          61.700          61.766          66.449          67.981          67.988          70.127          72.611          73.709          77.232          78.345          81.186          82.108          83.778          88.178          89.658          91.237          92.167          94.515          95.872         102.649         103.067         105.129         107.810         110.247         114.779         128.085         129.906         131.935         138.147         141.817         142.037         146.239         146.565         159.542         164.478         167.890         172.080
   60          19.704          20.919          25.624          30.902          31.313          37.130          39.567          41.291          45.439          46.185          50.287          61.656          61.794          66.543          67.848          67.955          69.965          72.637          73.734          77.258          78.494          81.273          82.122          83.738          88.156          89.716          91.008          92.100          94.495          95.933         102.724         103.148         105.224         107.897         110.308         114.984         128.076         129.794         132.148         138.376         141.904         142.095         146.231         146.559         159.481         164.493         167.803         172.045
   61          19.271          20.407          25.132          30.736          31.190          37.039          39.443          40.946          45.167          46.194          50.100          61.543          61.890          66.612          67.704          67.946          69.804          72.657          73.767          77.283          78.650          81.350          82.137          83.705          88.136          89.755          90.792          92.033          94.478          95.994         102.799         103.229         105.315         107.981         110.372         115.188         128.062         129.681         132.362         138.600         141.990         142.152         146.224         146.554         159.421         164.507         167.718         172.010
   62          18.834          19.891          24.626          30.577          31.068          36.949          39.321          40.589          44.906          46.197          49.933          61.428          61.987          66.655          67.558          67.956          69.645          72.672          73.808          77.309          78.812          81.418          82.151          83.679          88.119          89.765          90.602          91.967          94.464          96.053         102.873         103.309         105.404         108.062         110.438         115.392         128.044         129.566         132.577         138.821         142.074         142.208         146.216         146.549         159.362         164.520         167.633         171.975
   63          18.393          19.369          24.107          30.424          30.947          36.860          39.200          40.224          44.657          46.192          49.786          61.311          62.086          66.671          67.410          67.987          69.487          72.680          73.857          77.337          78.979          81.475          82.166          83.660          88.105          89.727          90.456          91.901          94.452          96.112         102.946         103.389         105.489         108.141         110.506         115.596         128.023         129.451         132.792         139.037         142.157         142.263         146.209         146.545         159.302         164.533         167.550         171.940
   64          17.949          18.844          23.577          30.278          30.827          36.770          39.079          39.853          44.418          46.179          49.660          61.192          62.185          66.662          67.259          68.035          69.332          72.681          73.916          77.365          79.150          81.523          82.180          83.648          88.093          89.626          90.368          91.834          94.442          96.168         103.018         103.469         105.571         108.217         110.576         115.799         128.000         129.334         133.006         139.250         142.238         142.316         146.202         146.541         159.244         164.545         167.468         171.905
   65          17.501          18.316          23.036          30.136          30.707          36.678          38.959          39.481          44.188          46.155          49.558          61.071          62.286          66.633          67.106          68.097          69.180          72.675          73.982          77.396          79.323          81.561          82.194          83.641          88.085          89.471          90.333          91.767          94.434          96.223         103.091         103.547         105.651         108.291         110.647         116.001         127.976         129.216         133.218         139.458         142.318         142.367         146.194         146.537         159.186         164.556         167.387         171.869
   66          17.050          17.784          22.484          30.000          30.588          36.581          38.839          39.111          43.967          46.122          49.481          60.948          62.387          66.588          66.951          68.169          69.031          72.662          74.058          77.428          79.498          81.590          82.209          83.641          88.078          89.282          90.326          91.700          94.429          96.277         103.163         103.625         105.727         108.363         110.718         116.202         127.949         129.097         133.429         139.661         142.396         142.417         146.188         146.534         159.129         164.567         167.308         171.834
   67          16.596          17.250          21.923          29.868          30.468          36.475          38.718          38.750          43.754          46.077          49.427          60.824          62.489          66.531          66.795          68.247          68.885          72.643          74.140          77.463          79.675          81.610          82.223          83.646          88.075          89.077          90.333          91.633          94.426          96.329         103.235         103.702         105.800         108.432         110.791         116.401         127.922         128.978         133.637         139.860         142.465         142.472         146.181         146.531         159.072         164.576         167.231         171.799
   68          16.138          16.714          21.353          29.741          30.347          36.355          38.405          38.596          43.547          46.023          49.397          60.699          62.592          66.466          66.639          68.329          68.742          72.617          74.230          77.499          79.853          81.621          82.239          83.657          88.074          88.866          90.344          91.565          94.426          96.379         103.308         103.777         105.869         108.500         110.865         116.599         127.894         128.857         133.842         140.055         142.512         142.546         146.174         146.529         159.016         164.584         167.155         171.764
   69          15.678          16.176          20.775          29.618          30.225          36.213          38.086          38.474          43.347          45.959          49.390          60.572          62.694          66.394          66.482          68.411          68.603          72.585          74.326          77.537          80.032          81.623          82.255          83.671          88.075          88.652          90.355          91.496          94.428          96.428         103.380         103.852         105.936         108.567         110.938         116.795         127.865         128.737         134.044         140.245         142.557         142.619         146.168         146.527         158.961         164.592         167.081         171.730
   70          15.215          15.637          20.189          29.500          30.100          36.041          37.802          38.351          43.152          45.887          49.404          60.444          62.797          66.319          66.326          68.467          68.492          72.548          74.427          77.577          80.210          81.618          82.273          83.690          88.079          88.439          90.362          91.426          94.433          96.476         103.453         103.925         105.999         108.631         111.012         116.989         127.835         128.615         134.243         140.430         142.601         142.690         146.162         146.525         158.907         164.599         167.009         171.695
   71          14.750          15.097          19.596          29.385          29.973          35.833          37.562          38.227          42.962          45.809          49.437          60.314          62.900          66.170          66.241          68.335          68.572          72.506          74.533          77.619          80.388          81.605          82.292          83.712          88.084          88.228          90.366          91.356          94.439          96.522         103.526         103.997         106.060         108.694         111.086         117.181         127.805         128.493         134.438         140.610         142.642         142.758         146.155         146.523         158.854         164.604         166.938         171.661
   72          14.281          14.556          18.997          29.273          29.842          35.586          37.370          38.102          42.776          45.727          49.488          60.184          63.002          66.016          66.162          68.206          68.650          72.460          74.643          77.663          80.565          81.585          82.313          83.738          88.020          88.091          90.364          91.284          94.448          96.567         103.599         104.067         106.117         108.756         111.159         117.370         127.775         128.371         134.629         140.786         142.683         142.825         146.149         146.522         158.802         164.609         166.870         171.628
   73          13.811          14.015          18.391          29.165          29.707          35.306          37.223          37.978          42.594          45.642          49.554          60.052          63.104          65.864          66.082          68.080          68.724          72.410          74.756          77.709          80.741          81.559          82.335          83.766          87.816          88.100          90.358          91.210          94.459          96.610         103.672         104.135         106.171         108.816         111.232         117.557         127.745         128.249         134.816         140.957         142.721         142.890         146.144         146.521         158.751         164.612         166.805         171.594
   74          13.338          13.475          17.779          29.060          29.566          35.002          37.113          37.853          42.415          45.555          49.634          59.919          63.206          65.713          66.002          67.957          68.796          72.356          74.872          77.757          80.914          81.527          82.359          83.795          87.616          88.111          90.346          91.136          94.472          96.653         103.745         104.202         106.221         108.875         111.303         117.740         127.715         128.127         134.998         141.122         142.758         142.953         146.138         146.521         158.701         164.615         166.741         171.562
   75          12.863          12.935          17.162          28.959          29.419          34.685          37.033          37.729          42.240          45.467          49.725          59.786          63.307          65.565          65.923          67.838          68.864          72.299          74.990          77.807          81.083          81.492          82.385          83.827          87.421          88.123          90.329          91.060          94.487          96.694         103.818         104.267         106.269         108.933         111.374         117.922         127.685         128.005         135.176         141.283         142.793         143.014         146.132         146.520         158.652         164.616         166.680         171.530
   76          12.385          12.396          16.539          28.860          29.265          34.363          36.974          37.605          42.068          45.381          49.827          59.651          63.407          65.420          65.844          67.723          68.929          72.239          75.109          77.858          81.242          81.461          82.413          83.860          87.230          88.136          90.307          90.982          94.504          96.734         103.891         104.330         106.313         108.989         111.444         118.100         127.656         127.884         135.349         141.438         142.827         143.072         146.126         146.520         158.604         164.617         166.621         171.498
   77          11.859          11.906          15.912          28.765          29.103          34.043          36.933          37.483          41.899          45.296          49.938          59.516          63.506          65.279          65.768          67.611          68.990          72.176          75.229          77.911          81.335          81.488          82.443          83.894          87.046          88.150          90.279          90.904          94.522          96.774         103.963         104.391         106.355         109.044         111.512         118.274         127.627         127.762         135.517         141.589         142.859         143.129         146.121         146.521         158.557         164.616         166.565         171.468
   78          11.324          11.424          15.280          28.673          28.932          33.731          36.906          37.362          41.732          45.213          50.057          59.380          63.604          65.141          65.693          67.502          69.048          72.112          75.349          77.965          81.314          81.623          82.475          83.929          86.867          88.166          90.247          90.823          94.541          96.812         104.036         104.451         106.393         109.097         111.579         118.446         127.598         127.642         135.679         141.734         142.889         143.183         146.116         146.521         158.512         164.615         166.512         171.438
   79          10.790          10.941          14.644          28.583          28.751          33.431          36.891          37.243          41.568          45.133          50.181          59.244          63.700          65.007          65.619          67.397          69.102          72.045          75.469          78.022          81.263          81.780          82.508          83.964          86.694          88.182          90.210          90.742          94.562          96.849         104.107         104.507         106.428         109.149         111.644         118.613         127.522         127.570         135.837         141.874         142.918         143.235         146.110         146.522         158.468         164.612         166.461         171.409
   80          10.259          10.456          14.004          28.497          28.561          33.146          36.884          37.127          41.407          45.056          50.312          59.107          63.796          64.877          65.549          67.296          69.153          71.978          75.587          78.079          81.205          81.939          82.542          84.000          86.527          88.199          90.169          90.659          94.583          96.884         104.178         104.562         106.460         109.200         111.707         118.778         127.404         127.543         135.988         142.008         142.946         143.285         146.105         146.522         158.426         164.609         166.413         171.381
   81           9.731           9.969          13.360          28.360          28.413          32.878          36.887          37.013          41.248          44.983          50.446          58.970          63.889          64.752          65.480          67.198          69.202          71.909          75.705          78.138          81.142          82.095          82.577          84.035          86.367          88.217          90.124          90.574          94.605          96.919         104.248         104.615         106.489         109.249         111.768         118.938         127.287         127.516         136.134         142.137         142.971         143.333         146.100         146.523         158.385         164.604         166.367         171.353
   82           9.207           9.480          12.712          28.150          28.333          32.628          36.896          36.903          41.092          44.913          50.584          58.834          63.980          64.631          65.414          67.104          69.247          71.840          75.821          78.199          81.076          82.249          82.612          84.070          86.214          88.236          90.076          90.489          94.628          96.953         104.317         104.665         106.516         109.297         111.827         119.094         127.171         127.491         136.274         142.260         142.995         143.378         146.095         146.524         158.345         164.599         166.325         171.327
   83           8.685           8.990          12.062          27.932          28.256          32.399          36.796          36.912          40.939          44.847          50.725          58.697          64.070          64.516          65.351          67.014          69.289          71.771          75.934          78.261          81.007          82.398          82.648          84.105          86.069          88.256          90.025          90.403          94.651          96.985         104.385         104.713         106.539         109.343         111.884         119.245         127.057         127.466         136.408         142.378         143.018         143.421         146.090         146.525         158.308         164.593         166.285         171.302
   84           8.167           8.499          11.408          27.706          28.181          32.188          36.693          36.935          40.788          44.785          50.868          58.561          64.156          64.405          65.291          66.928          69.328          71.701          76.045          78.324          80.935          82.544          82.683          84.140          85.931          88.277          89.972          90.316          94.674          97.016         104.451         104.758         106.560         109.387         111.939         119.392         126.946         127.442         136.535         142.490         143.039         143.462         146.085         146.527         158.272         164.586         166.247         171.277
   85           7.654           8.006          10.751          27.476          28.111          31.998          36.595          36.963          40.640          44.727          51.011          58.426          64.240          64.301          65.234          66.846          69.364          71.633          76.153          78.389          80.861          82.685          82.717          84.174          85.802          88.300          89.916          90.228          94.696          97.046         104.516         104.801         106.578         109.429         111.991         119.534         126.836         127.419         136.656         142.596         143.059         143.501         146.080         146.528         158.237         164.579         166.213         171.254
   86           7.144           7.512          10.092          27.242          28.043          31.826          36.501          36.996          40.495          44.673          51.154          58.293          64.201          64.322          65.181          66.769          69.398          71.565          76.257          78.454          80.786          82.750          82.820          84.206          85.680          88.323          89.860          90.140          94.719          97.074         104.578         104.842         106.594         109.470         112.040         119.671         126.730         127.397         136.771         142.697         143.078         143.537         146.075         146.529         158.205         164.571         166.181         171.232
   87           6.639           7.016           9.430          27.008          27.979          31.671          36.412          37.034          40.353          44.622          51.297          58.161          64.108          64.399          65.130          66.696          69.429          71.499          76.357          78.521          80.710          82.782          82.951          84.238          85.568          88.347          89.802          90.052          94.741          97.101         104.639         104.880         106.608         109.508         112.087         119.803         126.627         127.377         136.879         142.791         143.095         143.571         146.071         146.530         158.174         164.563         166.152         171.212
   88           6.139           6.520           8.766          26.777          27.919          31.533          36.329          37.076          40.214          44.576          51.438          58.032          64.020          64.473          65.083          66.627          69.458          71.435          76.452          78.589          80.632          82.811          83.075          84.268          85.465          88.374          89.744          89.963          94.762          97.126         104.697         104.915         106.619         109.545         112.131         119.928         126.527         127.357         136.980         142.880         143.110         143.602         146.066         146.532         158.145         164.554         166.125         171.192
   89           5.643           6.022           8.100          26.550          27.862          31.411          36.250          37.122          40.080          44.533          51.577          57.906          63.938          64.543          65.040          66.563          69.485          71.373          76.543          78.658          80.553          82.837          83.193          84.297          85.371          88.401          89.687          89.875          94.782          97.150         104.752         104.948         106.628         109.579         112.172         120.047         126.431         127.339         137.074         142.962         143.125         143.631         146.062         146.533         158.118         164.546         166.100         171.174
   90           5.152           5.524           7.431          26.331          27.809          31.302          36.178          37.171          39.949          44.493          51.711          57.783          63.863          64.608          65.001          66.504          69.509          71.314          76.628          78.728          80.473          82.861          83.304          84.324          85.287          88.431          89.631          89.788          94.802          97.172         104.805         104.979         106.636         109.611         112.210         120.160         126.340         127.322         137.161         143.038         143.138         143.658         146.058         146.534         158.093         164.537         166.078         171.157
   91           4.665           5.024           6.761          26.122          27.760          31.207          36.111          37.223          39.823          44.458          51.841          57.665          63.793          64.667          64.967          66.449          69.530          71.259          76.708          78.799          80.393          82.881          83.407          84.349          85.213          88.462          89.577          89.701          94.820          97.192         104.854         105.006         106.642         109.641         112.245         120.265         126.254         127.306         137.241         143.108         143.150         143.683         146.054         146.535         158.070         164.529         166.058         171.141
   92           4.183           4.524           6.090          25.925          27.716          31.123          36.050          37.278          39.702          44.426          51.966          57.552          63.730          64.718          64.939          66.399          69.550          71.207          76.781          78.871          80.313          82.898          83.503          84.371          85.149          88.496          89.526          89.616          94.837          97.211         104.900         105.032         106.646         109.668         112.276         120.363         126.174         127.292         137.313         143.161         143.172         143.705         146.050         146.536         158.049         164.521         166.041         171.127
   93           3.705           4.023           5.417          25.742          27.675          31.050          35.996          37.333          39.587          44.397          52.082          57.446          63.674          64.759          64.921          66.355          69.567          71.159          76.848          78.943          80.233          82.912          83.591          84.390          85.095          88.532          89.477          89.531          94.852          97.227         104.941         105.054         106.649         109.692         112.305         120.453         126.100         127.279         137.379         143.170         143.229         143.725         146.046         146.537         158.030         164.514         166.025         171.114
   94           3.232           3.522           4.742          25.577          27.639          30.988          35.947          37.389          39.479          44.372          52.191          57.348          63.624          64.783          64.917          66.315          69.582          71.115          76.908          79.017          80.152          82.923          83.669          84.407          85.049          88.570          89.432          89.449          94.866          97.242         104.979         105.074         106.651         109.714         112.330         120.533         126.032         127.267         137.436         143.178         143.279         143.742         146.043         146.538         158.014         164.507         166.012         171.103
   95           2.762           3.020           4.067          25.429          27.608          30.935          35.905          37.444          39.378          44.350          52.289          57.259          63.580          64.789          64.930          66.280          69.596          71.077          76.961          79.090          80.072          82.932          83.738          84.420          85.013          88.611          89.369          89.392          94.878          97.255         105.013         105.091         106.652         109.733         112.353         120.605         125.973         127.257         137.487         143.186         143.324         143.757         146.041         146.539         157.999         164.501         166.001         171.093
   96           2.296           2.517           3.390          25.302          27.581          30.891          35.869          37.496          39.288          44.332          52.375          57.180          63.543          64.783          64.951          66.251          69.607          71.043          77.006          79.164          79.993          82.938          83.798          84.431          84.985          88.655          89.291          89.357          94.888          97.266         105.041         105.106         106.653         109.749         112.371         120.666         125.921         127.249         137.529         143.192         143.361         143.770         146.038         146.539         157.987         164.495         165.991         171.085
   97           1.833           2.014           2.713          25.196          27.559          30.856          35.840          37.544          39.209          44.317          52.449          57.113          63.513          64.773          64.974          66.227          69.616          71.016          77.044          79.237          79.915          82.942          83.847          84.439          84.964          88.701          89.216          89.327          94.897          97.275         105.065         105.118         106.653         109.763         112.387         120.718         125.877         127.242         137.564         143.197         143.392         143.781         146.036         146.540         157.977         164.491         165.983         171.078
   98           1.373           1.511           2.036          25.112          27.542          30.829          35.817          37.585          39.143          44.306          52.508          57.059          63.489          64.764          64.994          66.208          69.623          70.994          77.073          79.309          79.840          82.944          83.886          84.444          84.949          88.750          89.145          89.304          94.904          97.283         105.084         105.127         106.653         109.773         112.399         120.758         125.843         127.237         137.592         143.200         143.416         143.789         146.034         146.540         157.969         164.487         165.977         171.073
   99           0.914           1.007           1.357          25.051          27.529          30.810          35.800          37.617          39.094          44.297          52.551          57.020          63.472          64.757          65.009          66.195          69.628          70.978          77.095          79.377          79.769          82.946          83.913          84.448          84.939          88.799          89.079          89.287          94.909          97.288         105.098         105.134         106.652         109.781         112.407         120.787         125.818         127.233         137.611         143.203         143.433         143.795         146.033         146.541         157.963         164.485         165.973         171.069
  100           0.457           0.504           0.679          25.015          27.522          30.798          35.791          37.637          39.063          44.293          52.577          56.996          63.462          64.753          65.018          66.187          69.631          70.968          77.107          79.433          79.711          82.947          83.930          84.450          84.934          88.846          89.022          89.276          94.912          97.291         105.106         105.138         106.652         109.785         112.413         120.805         125.803         127.230         137.623         143.205         143.443         143.798         146.033         146.541         157.960         164.483         165.970         171.067
  101         -31.196           0.000           0.000           0.000           0.000           0.000           0.000          33.041          38.255          44.551          45.148          51.865          56.684          58.067          59.147          60.812          69.965          73.048          73.164          75.294          76.744          77.999          80.469          84.677          87.005          91.189          93.163          95.158          98.790          99.365         105.013         107.757         110.071         111.374         115.495         127.119         128.047         134.978         137.466         140.089         141.784         145.943         147.108         152.553         158.334         164.580         166.374         171.256
  102           0.273           0.522           0.748          25.000          27.516          30.799          35.741          37.685          39.052          44.292          52.574          56.988          63.447          64.753          65.029          66.183          69.632          70.965          77.117          79.459          79.686          82.946          83.931          84.454          84.933          88.871          88.969          89.302          94.913          97.292         105.107         105.138         106.653         109.776         112.426         120.810         125.798         127.230         137.627         143.205         143.447         143.799         146.032         146.541         157.959         164.482         165.969         171.066
  103           0.545           1.044           1.495          24.994          27.508          30.811          35.614          37.796          39.050          44.294          52.539          56.988          63.414          64.757          65.051          66.181          69.633          70.965          77.133          79.460          79.685          82.943          83.919          84.465          84.938          88.870          88.910          89.372          94.912          97.293         105.101         105.134         106.653         109.745         112.459         120.806         125.796         127.230         137.627         143.206         143.446         143.799         146.032         146.541         157.959         164.482         165.969         171.066
  104           0.817           1.566           2.242          24.983          27.493          30.831          35.426          37.955          39.047          44.298          52.481          56.988          63.361          64.764          65.087          66.177          69.634          70.965          77.161          79.462          79.685          82.937          83.899          84.482          84.947          88.840          88.870          89.459          94.912          97.294         105.091         105.128         106.655         109.696         112.513         120.801         125.794         127.231         137.627         143.207         143.446         143.799         146.032         146.541         157.960         164.482         165.968         171.066
  105           1.089           2.088           2.986          24.968          27.474          30.858          35.197          38.145          39.043          44.303          52.399          56.989          63.292          64.773          65.133          66.171          69.635          70.964          77.198          79.465          79.685          82.929          83.875          84.502          84.959          88.768          88.870          89.556          94.911          97.295         105.076         105.120         106.656         109.630         112.584         120.793         125.791         127.231         137.627         143.208         143.446         143.799         146.032         146.541         157.961         164.482         165.967         171.067
  106           1.359           2.609           3.729          24.947          27.452          30.892          34.941          38.351          39.037          44.309          52.296          56.989          63.209          64.784          65.187          66.164          69.637          70.964          77.246          79.469          79.684          82.920          83.847          84.522          84.977          88.697          88.869          89.659          94.910          97.297         105.058         105.110         106.659         109.551         112.671         120.784         125.787         127.232         137.627         143.210         143.446         143.799         146.031         146.541         157.962         164.482         165.966         171.067
  107           1.628           3.129           4.469          24.922          27.428          30.932          34.664          38.565          39.030          44.317          52.170          56.990          63.116          64.796          65.246          66.156          69.639          70.963          77.303          79.473          79.684          82.908          83.816          84.542          85.000          88.628          88.869          89.766          94.909          97.299         105.035         105.097         106.661         109.461         112.771         120.772         125.782         127.234         137.628         143.212         143.445         143.799         146.031         146.542         157.963         164.482         165.964         171.067
  108           1.895           3.649           5.205          24.891          27.402          30.977          34.374          38.783          39.022          44.325          52.023          56.991          63.015          64.811          65.307          66.146          69.642          70.963          77.369          79.478          79.683          82.894          83.785          84.558          85.029          88.562          88.868          89.878          94.908          97.302         105.008         105.082         106.664         109.363         112.880         120.758         125.777         127.235         137.628         143.215         143.445         143.799         146.030         146.542         157.964         164.481         165.962         171.068
  109           2.161           4.167           5.938          24.853          27.377          31.027          34.072          39.001          39.012          44.335          51.855          56.991          62.909          64.827          65.370          66.134          69.645          70.962          77.443          79.484          79.682          82.878          83.753          84.571          85.064          88.498          88.868          89.993          94.906          97.305         104.977         105.066         106.668         109.259         112.998         120.742         125.770         127.237         137.628         143.218         143.444         143.798         146.029         146.542         157.966         164.481         165.960         171.069
  110           2.425           4.685           6.665          24.810          27.354          31.080          33.760          39.000          39.218          44.344          51.668          56.992          62.798          64.845          65.433          66.122          69.648          70.961          77.525          79.491          79.681          82.861          83.722          84.580          85.106          88.438          88.867          90.111          94.905          97.308         104.940         105.047         106.671         109.152         113.122         120.724         125.763         127.238         137.629         143.221         143.444         143.798         146.029         146.542         157.968         164.481         165.958         171.069
  111           2.686           5.202           7.388          24.760          27.335          31.136          33.440          38.987          39.432          44.353          51.462          56.993          62.685          64.864          65.495          66.108          69.652          70.960          77.613          79.498          79.680          82.842          83.692          84.584          85.153          88.381          88.866          90.231          94.903          97.312         104.899         105.026         106.675         109.042         113.251         120.704         125.756         127.240         137.629         143.224         143.443         143.798         146.028         146.542         157.970         164.480         165.956         171.070
  112           2.945           5.717           8.104          24.703          27.321          31.195          33.114          38.972          39.642          44.362          51.238          56.994          62.571          64.884          65.554          66.093          69.656          70.959          77.706          79.506          79.678          82.822          83.663          84.584          85.204          88.326          88.865          90.355          94.901          97.316         104.854         105.004         106.679         108.932         113.383         120.682         125.747         127.242         137.630         143.228         143.442         143.798         146.027         146.543         157.972         164.480         165.953         171.071
  113           3.201           6.230           8.814          24.640          27.314          31.255          32.780          38.955          39.847          44.369          50.998          56.995          62.456          64.905          65.612          66.076          69.660          70.958          77.805          79.514          79.677          82.800          83.635          84.581          85.260          88.275          88.864          90.480          94.899          97.320         104.803         104.981         106.684         108.823         113.518         120.658         125.738         127.244         137.631         143.232         143.442         143.797         146.026         146.543         157.975         164.479         165.950         171.072
  114           3.453           6.742           9.515          24.569          27.314          31.316          32.441          38.936          40.047          44.375          50.744          56.997          62.341          64.927          65.667          66.059          69.664          70.957          77.907          79.523          79.675          82.777          83.610          84.575          85.320          88.227          88.863          90.607          94.897          97.324         104.747         104.956         106.688         108.715         113.654         120.633         125.729         127.246         137.631         143.237         143.441         143.797         146.025         146.543         157.977         164.479         165.947         171.073
  115           3.702           7.252          10.208          24.491          27.324          31.377          32.097          38.914          40.242          44.379          50.477          56.998          62.228          64.951          65.720          66.041          69.668          70.956          78.013          79.533          79.673          82.752          83.586          84.566          85.382          88.182          88.862          90.736          94.895          97.329         104.687         104.930         106.693         108.610         113.791         120.605         125.719         127.249         137.632         143.241         143.440         143.796         146.024         146.544         157.980         164.478         165.943         171.074
  116           3.947           7.761          10.891          24.407          27.344          31.439          31.748          38.890          40.430          44.379          50.199          57.000          62.116          64.974          65.769          66.023          69.672          70.955          78.120          79.543          79.671          82.727          83.565          84.554          85.446          88.139          88.861          90.866          94.892          97.334         104.621         104.902         106.698         108.508         113.928         120.576         125.709         127.251         137.633         143.246         143.439         143.796         146.023         146.544         157.983         164.478         165.940         171.075
  117           4.188           8.266          11.563          24.316          27.374          31.395          31.500          38.862          40.613          44.375          49.912          57.001          62.006          64.998          65.816          66.004          69.677          70.953          78.229          79.554          79.668          82.701          83.546          84.541          85.511          88.099          88.859          90.997          94.890          97.339         104.551         104.874         106.703         108.410         114.064         120.545         125.699         127.253         137.633         143.251         143.438         143.795         146.022         146.544         157.986         164.477         165.937         171.076
  118           4.424           8.770          12.223          24.220          27.417          31.037          31.561          38.832          40.789          44.365          49.619          57.003          61.899          65.023          65.860          65.984          69.681          70.952          78.338          79.564          79.666          82.675          83.530          84.525          85.578          88.062          88.858          91.129          94.888          97.344         104.476         104.845         106.707         108.317         114.200         120.513         125.688         127.256         137.634         143.257         143.438         143.794         146.021         146.545         157.989         164.477         165.933         171.077
  119           4.655           9.270          12.869          24.118          27.473          30.676          31.620          38.797          40.959          44.349          49.322          57.004          61.794          65.048          65.901          65.964          69.686          70.951          78.446          79.576          79.664          82.648          83.516          84.508          85.646          88.027          88.857          91.261          94.885          97.349         104.397         104.816         106.712         108.228         114.334         120.479         125.677         127.258         137.635         143.262         143.437         143.794         146.020         146.545         157.992         164.476         165.929         171.078
  120           4.881           9.768          13.501          24.012          27.543          30.311          31.678          38.758          41.123          44.323          49.025          57.006          61.693          65.072          65.939          65.943          69.690          70.950          78.553          79.587          79.661          82.621          83.505          84.489          85.714          87.995          88.855          91.393          94.883          97.355         104.314         104.786         106.717         108.144         114.466         120.445         125.667         127.261         137.636         143.267         143.436         143.793         146.018         146.545         157.995         164.475         165.926         171.079
  121           5.101          10.262          14.116          23.902          27.627          29.943          31.734          38.714          41.279          44.287          48.731          57.008          61.594          65.097          65.923          65.975          69.695          70.948          78.659          79.599          79.659          82.593          83.497          84.469          85.782          87.965          88.854          91.524          94.880          97.360         104.228         104.755         106.721         108.065         114.596         120.409         125.656         127.263         137.636         143.273         143.435         143.792         146.017         146.546         157.998         164.475         165.922         171.080
  122           5.315          10.753          14.713          23.788          27.727          29.573          31.788          38.664          41.429          44.238          48.444          57.010          61.500          65.121          65.902          66.008          69.699          70.947          78.761          79.610          79.656          82.566          83.492          84.447          85.849          87.937          88.852          91.654          94.877          97.366         104.138         104.725         106.726         107.992         114.723         120.372         125.645         127.265         137.637         143.278         143.434         143.791         146.016         146.546         158.001         164.474         165.918         171.081
  123           5.522          11.239          15.290          23.672          27.844          29.200          31.840          38.607          41.571          44.173          48.168          57.012          61.408          65.145          65.882          66.039          69.703          70.945          78.860          79.622          79.654          82.539          83.489          84.424          85.916          87.912          88.850          91.783          94.875          97.371         104.046         104.695         106.730         107.924         114.847         120.334         125.634         127.268         137.638         143.284         143.433         143.790         146.015         146.546         158.004         164.473         165.914         171.082
  124           5.722          11.721          15.846          23.554          27.978          28.826          31.890          38.543          41.707          44.092          47.908          57.014          61.321          65.168          65.861          66.067          69.707          70.944          78.955          79.634          79.653          82.512          83.490          84.400          85.983          87.888          88.849          91.910          94.872          97.376         103.953         104.665         106.734         107.861         114.969         120.295         125.624         127.270         137.639         143.290         143.432         143.789         146.014         146.547         158.007         164.473         165.911         171.083
  125           5.914          12.198          16.378          23.435          28.131          28.451          31.938          38.470          41.835          43.991          47.667          57.015          61.238          65.190          65.841          66.093          69.711          70.943          79.045          79.646          79.652          82.486          83.493          84.374          86.047          87.866          88.847          92.034          94.870          97.382         103.858         104.636         106.738         107.803         115.086         120.257         125.613         127.272         137.639         143.295         143.431         143.788         146.013         146.547         158.010         164.472         165.907         171.084
  126           6.098          12.669          16.886          23.314          28.075          28.302          31.982          38.387          41.956          43.870          47.449          57.017          61.159          65.212          65.822          66.117          69.715          70.942          79.130          79.653          79.657          82.460          83.499          84.348          86.110          87.846          88.846          92.155          94.868          97.387         103.763         104.607         106.742         107.750         115.199         120.218         125.603         127.274         137.640         143.301         143.430         143.787         146.012         146.547         158.013         164.471         165.904         171.085
  127           6.273          13.133          17.368          23.194          27.700          28.493          32.024          38.292          42.069          43.730          47.257          57.019          61.085          65.233          65.803          66.139          69.719          70.940          79.208          79.655          79.668          82.436          83.507          84.320          86.171          87.828          88.844          92.272          94.865          97.392         103.669         104.579         106.745         107.701         115.308         120.179         125.594         127.276         137.641         143.306         143.429         143.786         146.011         146.547         158.016         164.471         165.900         171.086
  128           6.440          13.589          17.822          23.073          27.326          28.704          32.064          38.184          42.175          43.571          47.091          57.021          61.015          65.253          65.785          66.159          69.723          70.939          79.279          79.659          79.679          82.412          83.518          84.292          86.230          87.812          88.842          92.386          94.863          97.396         103.576         104.552         106.749         107.657         115.412         120.140         125.584         127.278         137.641         143.311         143.429         143.785         146.010         146.548         158.019         164.470         165.897         171.087
  129           6.597          14.037          18.248          22.953          26.955          28.934          32.099          38.061          42.273          43.399          46.951          57.023          60.949          65.272          65.768          66.177          69.726          70.938          79.341          79.667          79.690          82.389          83.532          84.262          86.286          87.797          88.841          92.494          94.861          97.401         103.485         104.526         106.752         107.618         115.511         120.102         125.576         127.280         137.642         143.316         143.428         143.784         146.009         146.548         158.022         164.470         165.894         171.088
  130           6.743          14.474          18.645          22.834          26.588          29.182          32.132          37.923          42.364          43.218          46.835          57.024          60.888          65.290          65.752          66.193          69.729          70.937          79.393          79.680          79.700          82.368          83.548          84.232          86.339          87.783          88.839          92.597          94.859          97.405         103.397         104.502         106.755         107.582         115.604         120.065         125.567         127.281         137.643         143.321         143.427         143.783         146.009         146.548         158.024         164.469         165.891         171.089
  131           6.879          14.900          19.012          22.715          26.227          29.448          32.161          37.769          42.447          43.034          46.741          57.026          60.833          65.306          65.737          66.208          69.732          70.936          79.434          79.698          79.709          82.348          83.567          84.201          86.388          87.771          88.838          92.694          94.857          97.409         103.314         104.479         106.757         107.550         115.692         120.030         125.560         127.283         137.643         143.325         143.426         143.782         146.008         146.548         158.026         164.469         165.888         171.090
  132           7.004          15.311          19.349          22.598          25.875          29.727          32.187          37.598          42.522          42.853          46.665          57.027          60.782          65.321          65.722          66.220          69.735          70.935          79.465          79.718          79.721          82.329          83.587          84.170          86.434          87.760          88.836          92.784          94.855          97.413         103.235         104.458         106.760         107.522         115.772         119.996         125.552         127.284         137.644         143.329         143.426         143.781         146.007         146.549         158.029         164.468         165.886         171.091
  133           7.117          15.704          19.658          22.482          25.534          30.018          32.208          37.412          42.589          42.680          46.606          57.029          60.736          65.335          65.710          66.232          69.738          70.934          79.485          79.726          79.748          82.312          83.610          84.138          86.476          87.751          88.835          92.867          94.854          97.416         103.162         104.439         106.762         107.498         115.846         119.964         125.546         127.285         137.644         143.333         143.425         143.780         146.007         146.549         158.031         164.468         165.883         171.091
  134           7.218          16.076          19.940          22.366          25.207          30.316          32.225          37.212          42.520          42.649          46.559          57.030          60.695          65.347          65.698          66.242          69.740          70.933          79.499          79.734          79.777          82.297          83.634          84.106          86.513          87.742          88.834          92.942          94.852          97.419         103.095         104.421         106.764         107.476         115.913         119.935         125.540         127.286         137.645         143.336         143.425         143.779         146.006         146.549         158.032         164.467         165.881         171.092
  135           7.307          16.423          20.194          22.252          24.901          30.615          32.236          37.005          42.377          42.701          46.522          57.031          60.660          65.358          65.688          66.250          69.742          70.933          79.508          79.740          79.805          82.284          83.659          84.074          86.547          87.735          88.833          93.008          94.851          97.422         103.035         104.406         106.766         107.458         115.972         119.908         125.535         127.287         137.645         143.339         143.424         143.779         146.006         146.549         158.034         164.467         165.879         171.093
  136           7.383          16.737          20.423          22.140          24.620          30.907          32.240          36.796          42.253          42.745          46.494          57.032          60.630          65.367          65.679          66.258          69.744          70.932          79.513          79.746          79.830          82.272          83.685          84.042          86.575          87.729          88.832          93.065          94.850          97.424         102.984         104.393         106.767         107.443         116.022         119.885         125.531         127.288         137.645         143.342         143.424         143.778         146.005         146.549         158.035         164.467         165.878         171.093
  137           7.445          17.013          20.626          22.029          24.372          31.185          32.236          36.595          42.151          42.781          46.474          57.033          60.605          65.374          65.672          66.263          69.745          70.932          79.517          79.750          79.852          82.263          83.712          84.010          86.599          87.724          88.831          93.112          94.849          97.426         102.940         104.382         106.768         107.431         116.064         119.866         125.527         127.289         137.646         143.344         143.424         143.777         146.005         146.549         158.036         164.467         165.877         171.093
  138           7.494          17.241          20.804          21.923          24.165          31.439          32.220          36.414          42.071          42.808          46.459          57.034          60.586          65.380          65.666          66.268          69.746          70.931          79.519          79.754          79.869          82.255          83.738          83.981          86.617          87.721          88.831          93.150          94.848          97.428         102.906         104.373         106.769         107.421         116.097         119.850         125.524         127.289         137.646         143.346         143.423         143.777         146.005         146.549         158.037         164.466         165.876         171.094
  139           7.529          17.413          20.951          21.825          24.008          31.655          32.189          36.269          42.014          42.828          46.449          57.034          60.572          65.384          65.662          66.271          69.747          70.931          79.520          79.757          79.882          82.250          83.762          83.954          86.631          87.718          88.830          93.176          94.848          97.429         102.882         104.367         106.770         107.415         116.121         119.839         125.522         127.290         137.646         143.347         143.423         143.776         146.004         146.549         158.038         164.466         165.875         171.094
  140           7.550          17.521          21.056          21.750          23.910          31.820          32.144          36.173          41.980          42.840          46.443          57.034          60.563          65.387          65.660          66.273          69.747          70.931          79.521          79.758          79.890          82.247          83.781          83.934          86.639          87.717          88.830          93.193          94.848          97.429         102.867         104.363         106.770         107.411         116.136         119.832         125.521         127.290         137.646         143.348         143.423         143.776         146.004         146.549         158.038         164.466         165.874         171.094
  141           7.557          17.557          21.096          21.720          23.877          31.893          32.113          36.140          41.968          42.844          46.441          57.034          60.561          65.388          65.659          66.273          69.747          70.931          79.521          79.759          79.892          82.245          83.789          83.926          86.641          87.716          88.830          93.198          94.848          97.430         102.862         104.362         106.770         107.409         116.140         119.830         125.521         127.290         137.646         143.348         143.423         143.776         146.004         146.549         158.038         164.466         165.874         171.094
  142           7.550          17.521          21.056          21.750          23.910          31.820          32.144          36.173          41.980          42.840          46.443          57.034          60.563          65.387          65.660          66.273          69.747          70.931          79.521          79.758          79.890          82.247          83.781          83.934          86.639          87.717          88.830          93.193          94.848          97.429         102.867         104.363         106.770         107.411         116.136         119.832         125.521         127.290         137.646         143.348         143.423         143.776         146.004         146.549         158.038         164.466         165.874         171.094
  143           7.529          17.413          20.951          21.825          24.008          31.655          32.189          36.269          42.014          42.828          46.449          57.034          60.572          65.384          65.662          66.271          69.747          70.931          79.520          79.757          79.882          82.250          83.762          83.954          86.631          87.718          88.830          93.176          94.848          97.429         102.882         104.367         106.770         107.415         116.121         119.839         125.522         127.290         137.646         143.347         143.423         143.776         146.004         146.549         158.038         164.466         165.875         171.094
  144           7.494          17.241          20.804          21.923          24.165          31.439          32.220          36.414          42.071          42.808          46.459          57.034          60.586          65.380          65.666          66.268          69.746          70.931          79.519          79.754          79.869          82.255          83.738          83.981          86.617          87.721          88.831          93.150          94.848          97.428         102.906         104.373         106.769         107.421         116.097         119.850         125.524         127.289         137.646         143.346         143.423         143.777         146.005         146.549         158.037         164.466         165.876         171.094
  145           7.445          17.013          20.626          22.029          24.372          31.185          32.236          36.595          42.151          42.781          46.474          57.033          60.605          65.374          65.672          66.263          69.745          70.932          79.517          79.750          79.852          82.263          83.712          84.010          86.599          87.724          88.831          93.112          94.849          97.426         102.940         104.382         106.768         107.431         116.064         119.866         125.527         127.289         137.646         143.344         143.424         143.777         146.005         146.549         158.036         164.467         165.877         171.093
  146           7.383          16.737          20.423          22.140          24.620          30.907          32.240          36.796          42.253          42.745          46.494          57.032          60.630          65.367          65.679          66.258          69.744          70.932          79.513          79.746          79.830          82.272          83.685          84.042          86.575          87.729          88.832          93.065          94.850          97.424         102.984         104.393         106.767         107.443         116.022         119.885         125.531         127.288         137.645         143.342         143.424         143.778         146.005         146.549         158.035         164.467         165.878         171.093
  147           7.307          16.423          20.194          22.252          24.901          30.615          32.236          37.005          42.377          42.701          46.522          57.031          60.660          65.358          65.688          66.250          69.742          70.933          79.508          79.740          79.805          82.284          83.659          84.074          86.547          87.735          88.833          93.008          94.851          97.422         103.035         104.406         106.766         107.458         115.972         119.908         125.535         127.287         137.645         143.339         143.424         143.779         146.006         146.549         158.034         164.467         165.879         171.093
  148           7.218          16.076          19.940          22.366          25.207          30.316          32.225          37.212          42.520          42.649          46.559          57.030          60.695          65.347          65.698          66.242          69.740          70.933          79.499          79.734          79.777          82.297          83.634          84.106          86.513          87.742          88.834          92.942          94.852          97.419         103.095         104.421         106.764         107.476         115.913         119.935         125.540         127.286         137.645         143.336         143.425         143.779         146.006         146.549         158.032         164.467         165.881         171.092
  149           7.117          15.704          19.658          22.482          25.534          30.018          32.208          37.412          42.589          42.680          46.606          57.029          60.736          65.335          65.710          66.232          69.738          70.934          79.485          79.726          79.748          82.312          83.610          84.138          86.476          87.751          88.835          92.867          94.854          97.416         103.162         104.439         106.762         107.498         115.846         119.964         125.546         127.285         137.644         143.333         143.425         143.780         146.007         146.549         158.031         164.468         165.883         171.091
  150           7.004          15.311          19.349          22.598          25.875          29.727          32.187          37.598          42.522          42.853          46.665          57.027          60.782          65.321          65.722          66.220          69.735          70.935          79.465          79.718          79.721          82.329          83.587          84.170          86.434          87.760          88.836          92.784          94.855          97.413         103.235         104.458         106.760         107.522         115.772         119.996         125.552         127.284         137.644         143.329         143.426         143.781         146.007         146.549         158.029         164.468         165.886         171.091
  151           6.879          14.900          19.012          22.715          26.227          29.448          32.161          37.769          42.447          43.034          46.741          57.026          60.833          65.306          65.737          66.208          69.732          70.936          79.434          79.698          79.709          82.348          83.567          84.201          86.388          87.771          88.838          92.694          94.857          97.409         103.314         104.479         106.757         107.550         115.692         120.030         125.560         127.283         137.643         143.325         143.426         143.782         146.008         146.548         158.026         164.469         165.888         171.090
  152           6.743          14.474          18.645          22.834          26.588          29.182          32.132          37.923          42.364          43.218          46.835          57.024          60.888          65.290          65.752          66.193          69.729          70.937          79.393          79.680          79.700          82.368          83.548          84.232          86.339          87.783          88.839          92.597          94.859          97.405         103.397         104.502         106.755         107.582         115.604         120.065         125.567         127.281         137.643         143.321         143.427         143.783         146.009         146.548         158.024         164.469         165.891         171.089
  153           6.597          14.037          18.248          22.953          26.955          28.934          32.099          38.061          42.273          43.399          46.951          57.023          60.949          65.272          65.768          66.177          69.726          70.938          79.341          79.667          79.690          82.389          83.532          84.262          86.286          87.797          88.841          92.494          94.861          97.401         103.485         104.526         106.752         107.618         115.511         120.102         125.576         127.280         137.642         143.316         143.428         143.784         146.009         146.548         158.022         164.470         165.894         171.088
  154           6.440          13.589          17.822          23.073          27.326          28.704          32.064          38.184          42.175          43.571          47.091          57.021          61.015          65.253          65.785          66.159          69.723          70.939          79.279          79.659          79.679          82.412          83.518          84.292          86.230          87.812          88.842          92.386          94.863          97.396         103.576         104.552         106.749         107.657         115.412         120.140         125.584         127.278         137.641         143.311         143.429         143.785         146.010         146.548         158.019         164.470         165.897         171.087
  155           6.273          13.133          17.368          23.194          27.700          28.493          32.024          38.292          42.069          43.730          47.257          57.019          61.085          65.233          65.803          66.139          69.719          70.940          79.208          79.655          79.668          82.436          83.507          84.320          86.171          87.828          88.844          92.272          94.865          97.392         103.669         104.579         106.745         107.701         115.308         120.179         125.594         127.276         137.641         143.306         143.429         143.786         146.011         146.547         158.016         164.471         165.900         171.086
  156           6.098          12.669          16.886          23.314          28.075          28.302          31.982          38.387          41.956          43.870          47.449          57.017          61.159          65.212          65.822          66.117          69.715          70.942          79.130          79.653          79.657          82.460          83.499          84.348          86.110          87.846          88.846          92.155          94.868          97.387         103.763         104.607         106.742         107.750         115.199         120.218         125.603         127.274         137.640         143.301         143.430         143.787         146.012         146.547         158.013         164.471         165.904         171.085
  157           5.914          12.198          16.378          23.435          28.131          28.451          31.938          38.470          41.835          43.991          47.667          57.015          61.238          65.190          65.841          66.093          69.711          70.943          79.045          79.646          79.652          82.486          83.493          84.374          86.047          87.866          88.847          92.034          94.870          97.382         103.858         104.636         106.738         107.803         115.086         120.257         125.613         127.272         137.639         143.295         143.431         143.788         146.013         146.547         158.010         164.472         165.907         171.084
  158           5.722          11.721          15.846          23.554          27.978          28.826          31.890          38.543          41.707          44.092          47.908          57.014          61.321          65.168          65.861          66.067          69.707          70.944          78.955          79.634          79.653          82.512          83.490          84.400          85.983          87.888          88.849          91.910          94.872          97.376         103.953         104.665         106.734         107.861         114.969         120.295         125.624         127.270         137.639         143.290         143.432         143.789         146.014         146.547         158.007         164.473         165.911         171.083
  159           5.522          11.239          15.290          23.672          27.844          29.200          31.840          38.607          41.571          44.173          48.168          57.012          61.408          65.145          65.882          66.039          69.703          70.945          78.860          79.622          79.654          82.539          83.489          84.424          85.916          87.912          88.850          91.783          94.875          97.371         104.046         104.695         106.730         107.924         114.847         120.334         125.634         127.268         137.638         143.284         143.433         143.790         146.015         146.546         158.004         164.473         165.914         171.082
  160           5.315          10.753          14.713          23.788          27.727          29.573          31.788          38.664          41.429          44.238          48.444          57.010          61.500          65.121          65.902          66.008          69.699          70.947          78.761          79.610          79.656          82.566          83.492          84.447          85.849          87.937          88.852          91.654          94.877          97.366         104.138         104.725         106.726         107.992         114.723         120.372         125.645         127.265         137.637         143.278         143.434         143.791         146.016         146.546         158.001         164.474         165.918         171.081
  161           5.101          10.262          14.116          23.902          27.627          29.943          31.734          38.714          41.279          44.287          48.731          57.008          61.594          65.097          65.923          65.975          69.695          70.948          78.659          79.599          79.659          82.593          83.497          84.469          85.782          87.965          88.854          91.524          94.880          97.360         104.228         104.755         106.721         108.065         114.596         120.409         125.656         127.263         137.636         143.273         143.435         143.792         146.017         146.546         157.998         164.475         165.922         171.080
  162           4.881           9.768          13.501          24.012          27.543          30.311          31.678          38.758          41.123          44.323          49.025          57.006          61.693          65.072          65.939          65.943          69.690          70.950          78.553          79.587          79.661          82.621          83.505          84.489          85.714          87.995          88.855          91.393          94.883          97.355         104.314         104.786         106.717         108.144         114.466         120.445         125.667         127.261         137.636         143.267         143.436         143.793         146.018         146.545         157.995         164.475         165.926         171.079
  163           4.655           9.270          12.869          24.118          27.473          30.676          31.620          38.797          40.959          44.349          49.322          57.004          61.794          65.048          65.901          65.964          69.686          70.951          78.446          79.576          79.664          82.648          83.516          84.508          85.646          88.027          88.857          91.261          94.885          97.349         104.397         104.816         106.712         108.228         114.334         120.479         125.677         127.258         137.635         143.262         143.437         143.794         146.020         146.545         157.992         164.476         165.929         171.078
  164           4.424           8.770          12.223          24.220          27.417          31.037          31.561          38.832          40.789          44.365          49.619          57.003          61.899          65.023          65.860          65.984          69.681          70.952          78.338          79.564          79.666          82.675          83.530          84.525          85.578          88.062          88.858          91.129          94.888          97.344         104.476         104.845         106.707         108.317         114.200         120.513         125.688         127.256         137.634         143.257         143.438         143.794         146.021         146.545         157.989         164.477         165.933         171.077
  165           4.188           8.266          11.563          24.316          27.374          31.395          31.500          38.862          40.613          44.375          49.912          57.001          62.006          64.998          65.816          66.004          69.677          70.953          78.229          79.554          79.668          82.701          83.546          84.541          85.511          88.099          88.859          90.997          94.890          97.339         104.551         104.874         106.703         108.410         114.064         120.545         125.699         127.253         137.633         143.251         143.438         143.795         146.022         146.544         157.986         164.477         165.937         171.076
  166           3.947           7.761          10.891          24.407          27.344          31.439          31.748          38.890          40.430          44.379          50.199          57.000          62.116          64.974          65.769          66.023          69.672          70.955          78.120          79.543          79.671          82.727          83.565          84.554          85.446          88.139          88.861          90.866          94.892          97.334         104.621         104.902         106.698         108.508         113.928         120.576         125.709         127.251         137.633         143.246         143.439         143.796         146.023         146.544         157.983         164.478         165.940         171.075
  167           3.702           7.252          10.208          24.491          27.324          31.377          32.097          38.914          40.242          44.379          50.477          56.998          62.228          64.951          65.720          66.041          69.668          70.956          78.013          79.533          79.673          82.752          83.586          84.566          85.382          88.182          88.862          90.736          94.895          97.329         104.687         104.930         106.693         108.610         113.791         120.605         125.719         127.249         137.632         143.241         143.440         143.796         146.024         146.544         157.980         164.478         165.943         171.074
  168           3.453           6.742           9.515          24.569          27.314          31.316          32.441          38.936          40.047          44.375          50.744          56.997          62.341          64.927          65.667          66.059          69.664          70.957          77.907          79.523          79.675          82.777          83.610          84.575          85.320          88.227          88.863          90.607          94.897          97.324         104.747         104.956         106.688         108.715         113.654         120.633         125.729         127.246         137.631         143.237         143.441         143.797         146.025         146.543         157.977         164.479         165.947         171.073
  169           3.201           6.230           8.814          24.640          27.314          31.255          32.780          38.955          39.847          44.369          50.998          56.995          62.456          64.905          65.612          66.076          69.660          70.958          77.805          79.514          79.677          82.800          83.635          84.581          85.260          88.275          88.864          90.480          94.899          97.320         104.803         104.981         106.684         108.823         113.518         120.658         125.738         127.244         137.631         143.232         143.442         143.797         146.026         146.543         157.975         164.479         165.950         171.072
  170           2.945           5.717           8.104          24.703          27.321          31.195          33.114          38.972          39.642          44.362          51.238          56.994          62.571          64.884          65.554          66.093          69.656          70.959          77.706          79.506          79.678          82.822          83.663          84.584          85.204          88.326          88.865          90.355          94.901          97.316         104.854         105.004         106.679         108.932         113.383         120.682         125.747         127.242         137.630         143.228         143.442         143.798         146.027         146.543         157.972         164.480         165.953         171.071
  171           2.686           5.202           7.388          24.760          27.335          31.136          33.440          38.987          39.432          44.353          51.462          56.993          62.685          64.864          65.495          66.108          69.652          70.960          77.613          79.498          79.680          82.842          83.692          84.584          85.153          88.381          88.866          90.231          94.903          97.312         104.899         105.026         106.675         109.042         113.251         120.704         125.756         127.240         137.629         143.224         143.443         143.798         146.028         146.542         157.970         164.480         165.956         171.070
  172           2.425           4.685           6.665          24.810          27.354          31.080          33.760          39.000          39.218          44.344          51.668          56.992          62.798          64.845          65.433          66.122          69.648          70.961          77.525          79.491          79.681          82.861          83.722          84.580          85.106          88.438          88.867          90.111          94.905          97.308         104.940         105.047         106.671         109.152         113.122         120.724         125.763         127.238         137.629         143.221         143.444         143.798         146.029         146.542         157.968         164.481         165.958         171.069
  173           2.161           4.167           5.938          24.853          27.377          31.027          34.072          39.001          39.012          44.335          51.855          56.991          62.909          64.827          65.370          66.134          69.645          70.962          77.443          79.484          79.682          82.878          83.753          84.571          85.064          88.498          88.868          89.993          94.906          97.305         104.977         105.066         106.668         109.259         112.998         120.742         125.770         127.237         137.628         143.218         143.444         143.798         146.029         146.542         157.966         164.481         165.960         171.069
  174           1.895           3.649           5.205          24.891          27.402          30.977          34.374          38.783          39.022          44.325          52.023          56.991          63.015          64.811          65.307          66.146          69.642          70.963          77.369          79.478          79.683          82.894          83.785          84.558          85.029          88.562          88.868          89.878          94.908          97.302         105.008         105.082         106.664         109.363         112.880         120.758         125.777         127.235         137.628         143.215         143.445         143.799         146.030         146.542         157.964         164.481         165.962         171.068
  175           1.628           3.129           4.469          24.922          27.428          30.932          34.664          38.565          39.030          44.317          52.170          56.990          63.116          64.796          65.246          66.156          69.639          70.963          77.303          79.473          79.684          82.908          83.816          84.542          85.000          88.628          88.869          89.766          94.909          97.299         105.035         105.097         106.661         109.461         112.771         120.772         125.782         127.234         137.628         143.212         143.445         143.799         146.031         146.542         157.963         164.482         165.964         171.067
  176           1.359           2.609           3.729          24.947          27.452          30.892          34.941          38.351          39.037          44.309          52.296          56.989          63.209          64.784          65.187          66.164          69.637          70.964          77.246          79.469          79.684          82.920          83.847          84.522          84.977          88.697          88.869          89.659          94.910          97.297         105.058         105.110         106.659         109.551         112.671         120.784         125.787         127.232         137.627         143.210         143.446         143.799         146.031         146.541         157.962         164.482         165.966         171.067
  177           1.089           2.088           2.986          24.968          27.474          30.858          35.197          38.145          39.043          44.303          52.399          56.989          63.292          64.773          65.133          66.171          69.635          70.964          77.198          79.465          79.685          82.929          83.875          84.502          84.959          88.768          88.870          89.556          94.911          97.295         105.076         105.120         106.656         109.630         112.584         120.793         125.791         127.231         137.627         143.208         143.446         143.799         146.032         146.541         157.961         164.482         165.967         171.067
  178           0.817           1.566           2.242          24.983          27.493          30.831          35.426          37.955          39.047          44.298          52.481          56.988          63.361          64.764          65.087          66.177          69.634          70.965          77.161          79.462          79.685          82.937          83.899          84.482          84.947          88.840          88.870          89.459          94.912          97.294         105.091         105.128         106.655         109.696         112.513         120.801         125.794         127.231         137.627         143.207         143.446         143.799         146.032         146.541         157.960         164.482         165.968         171.066
  179           0.545           1.044           1.495          24.994          27.508          30.811          35.614          37.796          39.050          44.294          52.539          56.988          63.414          64.757          65.051          66.181          69.633          70.965          77.133          79.460          79.685          82.943          83.919          84.465          84.938          88.870          88.910          89.372          94.912          97.293         105.101         105.134         106.653         109.745         112.459         120.806         125.796         127.230         137.627         143.206         143.446         143.799         146.032         146.541         157.959         164.482         165.969         171.066
  180           0.273           0.522           0.748          25.000          27.516          30.799          35.741          37.685          39.052          44.292          52.574          56.988          63.447          64.753          65.029          66.183          69.632          70.965          77.117          79.459          79.686          82.946          83.931          84.454          84.933          88.871          88.969          89.302          94.913          97.292         105.107         105.138         106.653         109.776         112.426         120.810         125.798         127.230         137.627         143.205         143.447         143.799         146.032         146.541         157.959         164.482         165.969         171.066
  181         -31.196           0.000           0.000           0.000           0.000           0.000           0.000          33.041          38.255          44.551          45.148          51.865          56.684          58.067          59.147          60.812          69.965          73.048          73.164          75.294          76.744          77.999          80.469          84.677          87.005          91.189          93.163          95.158          98.790          99.365         105.013         107.757         110.071         111.374         115.495         127.119         128.047         134.978         137.466         140.089         141.784         145.943         147.108         152.553         158.334         164.580         166.374         171.256
  182          -0.599           0.688           1.200          25.013          27.514          30.815          35.790          37.651          39.048          44.304          52.586          56.991          63.453          64.755          65.031          66.181          69.630          70.962          77.116          79.454          79.685          82.946          83.936          84.451          84.934          88.871          88.996          89.275          94.913          97.293         105.109         105.138         106.650         109.786         112.414         120.810         125.793         127.235         137.627         143.197         143.447         143.798         146.027         146.535         157.960         164.481         165.969         171.070
  183          -1.195           1.377           2.400          25.044          27.499          30.878          35.799          37.669          39.034          44.343          52.588          57.000          63.435          64.765          65.061          66.170          69.623          70.951          77.130          79.440          79.682          82.942          83.935          84.452          84.941          88.871          89.000          89.281          94.913          97.297         105.109         105.135         106.644         109.785         112.413         120.808         125.777         127.250         137.627         143.173         143.447         143.795         146.010         146.516         157.965         164.477         165.969         171.081
  184          -1.785           2.065           3.599          25.096          27.474          30.980          35.814          37.701          39.011          44.408          52.591          57.015          63.408          64.781          65.110          66.153          69.613          70.933          77.153          79.418          79.678          82.935          83.934          84.454          84.953          88.871          89.008          89.292          94.913          97.304         105.109         105.131         106.635         109.782         112.412         120.804         125.751         127.275         137.628         143.134         143.448         143.788         145.982         146.485         157.973         164.470         165.967         171.100
  185          -2.367           2.752           4.795          25.164          27.443          31.122          35.836          37.744          38.982          44.495          52.595          57.037          63.374          64.802          65.177          66.129          69.599          70.909          77.185          79.387          79.672          82.926          83.933          84.456          84.970          88.872          89.017          89.308          94.914          97.313         105.109         105.124         106.621         109.778         112.410         120.799         125.716         127.308         137.629         143.082         143.449         143.777         145.943         146.442         157.984         164.460         165.966         171.126
  186          -2.938           3.439           5.989          25.248          27.407          31.300          35.863          37.800          38.949          44.604          52.602          57.064          63.334          64.827          65.260          66.097          69.582          70.877          77.226          79.347          79.665          82.914          83.933          84.457          84.992          88.872          89.029          89.328          94.914          97.325         105.110         105.116         106.604         109.774         112.408         120.792         125.673         127.349         137.630         143.016         143.451         143.761         145.893         146.387         157.998         164.447         165.964         171.159
  187          -3.496           4.125           7.179          25.344          27.369          31.513          35.897          37.867          38.913          44.731          52.610          57.098          63.290          64.856          65.356          66.060          69.561          70.838          77.277          79.299          79.656          82.899          83.932          84.459          85.020          88.873          89.043          89.353          94.915          97.340         105.106         105.110         106.582         109.768         112.405         120.784         125.624         127.396         137.632         142.939         143.453         143.738         145.831         146.319         158.014         164.432         165.962         171.199
  188          -4.040           4.811           8.365          25.446          27.334          31.759          35.937          37.947          38.878          44.874          52.622          57.137          63.246          64.889          65.463          66.015          69.539          70.792          77.336          79.242          79.644          82.881          83.932          84.460          85.052          88.874          89.058          89.383          94.915          97.358         105.094         105.111         106.557         109.761         112.402         120.774         125.569         127.448         137.634         142.852         143.455         143.707         145.759         146.240         158.034         164.414         165.960         171.245
  189          -4.567           5.495           9.546          25.549          27.305          32.036          35.983          38.038          38.846          45.030          52.638          57.182          63.202          64.926          65.580          65.964          69.514          70.739          77.405          79.177          79.631          82.861          83.933          84.460          85.090          88.875          89.075          89.417          94.915          97.379         105.080         105.111         106.528         109.754         112.398         120.763         125.509         127.504         137.636         142.756         143.458         143.669         145.675         146.148         158.056         164.394         165.958         171.299
  190          -5.078           6.178          10.721          25.646          27.290          32.341          36.036          38.140          38.819          45.197          52.658          57.232          63.159          64.966          65.703          65.907          69.489          70.680          77.482          79.103          79.616          82.837          83.935          84.459          85.133          88.876          89.094          89.457          94.915          97.404         105.064         105.112         106.496         109.745         112.394         120.750         125.445         127.564         137.638         142.650         143.461         143.621         145.580         146.046         158.081         164.370         165.957         171.358
  191          -5.571           6.859          11.888          25.726          27.295          32.672          36.096          38.253          38.801          45.372          52.684          57.289          63.119          65.010          65.831          65.843          69.464          70.614          77.568          79.022          79.599          82.811          83.937          84.457          85.182          88.878          89.113          89.502          94.915          97.432         105.046         105.113         106.459         109.735         112.389         120.736         125.378         127.626         137.641         142.537         143.464         143.564         145.474         145.931         158.109         164.345         165.957         171.423
  192          -6.046           7.539          13.048          25.782          27.329          33.026          36.163          38.377          38.795          45.552          52.717          57.350          63.083          65.058          65.774          65.961          69.442          70.541          77.663          78.932          79.580          82.782          83.941          84.453          85.235          88.880          89.134          89.551          94.914          97.464         105.026         105.114         106.419         109.725         112.384         120.721         125.309         127.691         137.643         142.415         143.467         143.498         145.357         145.806         158.139         164.317         165.957         171.493
  193          -6.502           8.217          14.198          25.806          27.397          33.401          36.236          38.512          38.802          45.734          52.757          57.417          63.050          65.109          65.698          66.091          69.424          70.461          77.765          78.835          79.560          82.749          83.946          84.449          85.294          88.883          89.156          89.605          94.913          97.499         105.004         105.114         106.376         109.713         112.378         120.705         125.237         127.757         137.647         142.287         143.421         143.471         145.228         145.669         158.171         164.287         165.958         171.569
  194          -6.940           8.893          15.336          25.795          27.502          33.794          36.316          38.657          38.827          45.916          52.807          57.489          63.023          65.163          65.617          66.219          69.412          70.375          77.876          78.730          79.538          82.714          83.952          84.443          85.359          88.886          89.178          89.663          94.911          97.538         104.979         105.116         106.329         109.700         112.372         120.687         125.164         127.825         137.650         142.153         143.333         143.475         145.089         145.522         158.205         164.254         165.960         171.649
  195          -7.359           9.568          16.462          25.752          27.641          34.201          36.403          38.811          38.872          46.095          52.867          57.566          63.000          65.220          65.531          66.341          69.410          70.282          77.993          78.618          79.516          82.675          83.959          84.436          85.428          88.889          89.203          89.725          94.910          97.580         104.952         105.117         106.279         109.687         112.366         120.667         125.089         127.893         137.654         142.012         143.235         143.480         144.938         145.365         158.240         164.220         165.964         171.733
  196          -7.761          10.240          17.571          25.682          27.808          34.618          36.497          38.942          38.976          46.270          52.938          57.648          62.983          65.280          65.439          66.454          69.421          70.183          78.116          78.499          79.494          82.632          83.967          84.429          85.501          88.893          89.228          89.790          94.907          97.627         104.922         105.118         106.226         109.672         112.359         120.647         125.014         127.962         137.658         141.865         143.125         143.484         144.777         145.198         158.277         164.183         165.969         171.822
  197          -8.145          10.909          18.662          25.591          27.997          35.041          36.598          39.039          39.150          46.438          53.023          57.734          62.973          65.342          65.343          66.553          69.448          70.078          78.243          78.373          79.474          82.587          83.974          84.422          85.580          88.898          89.255          89.858          94.905          97.678         104.889         105.120         106.170         109.657         112.351         120.625         124.937         128.032         137.662         141.713         143.004         143.489         144.605         145.022         158.316         164.145         165.975         171.914
  198          -8.511          11.577          19.729          25.486          28.204          35.466          36.706          39.169          39.334          46.597          53.121          57.824          62.968          65.242          65.408          66.636          69.496          69.966          78.241          78.370          79.460          82.538          83.980          84.417          85.663          88.903          89.283          89.929          94.902          97.732         104.853         105.121         106.113         109.640         112.344         120.602         124.860         128.102         137.666         141.556         142.872         143.495         144.422         144.836         158.356         164.105         165.983         172.010
  199          -8.860          12.241          20.763          25.377          28.426          35.886          36.820          39.337          39.526          46.747          53.234          57.918          62.971          65.137          65.475          66.699          69.566          69.849          78.101          78.492          79.457          82.485          83.984          84.415          85.750          88.909          89.312          90.003          94.899          97.791         104.813         105.123         106.053         109.623         112.335         120.578         124.782         128.171         137.671         141.394         142.727         143.500         144.229         144.642         158.396         164.064         165.993         172.109
  200          -9.194          12.903          21.750          25.280          28.658          36.298          36.941          39.546          39.728          46.885          53.362          58.015          62.981          65.029          65.545          66.741          69.662          69.726          77.956          78.602          79.472          82.428          83.983          84.418          85.842          88.916          89.343          90.079          94.896          97.853         104.768         105.125         105.992         109.605         112.327         120.553         124.705         128.241         137.675         141.228         142.570         143.506         144.027         144.439         158.437         164.021         166.004         172.210
  201          -9.511          13.562          22.651          25.230          28.900          36.697          37.069          39.802          39.937          47.012          53.506          58.115          62.998          64.917          65.616          66.759          69.596          69.785          77.804          78.687          79.517          82.368          83.977          84.427          85.938          88.924          89.375          90.157          94.893          97.919         104.719         105.127         105.930         109.585         112.318         120.527         124.626         128.310         137.680         141.057         142.401         143.512         143.814         144.228         158.479         163.977         166.017         172.314
  202          -9.813          14.217          23.370          25.323          29.151          37.081          37.203          40.106          40.156          47.127          53.665          58.217          63.024          64.803          65.689          66.756          69.462          69.933          77.645          78.739          79.601          82.304          83.963          84.444          86.038          88.933          89.408          90.237          94.890          97.989         104.665         105.130         105.868         109.565         112.309         120.500         124.548         128.379         137.685         140.883         142.219         143.518         143.593         144.009         158.521         163.932         166.032         172.420
  203         -10.101          14.870          23.751          25.711          29.408          37.344          37.452          40.382          40.457          47.230          53.839          58.321          63.057          64.687          65.762          66.732          69.321          70.106          77.481          78.756          79.726          82.236          83.941          84.471          86.141          88.942          89.443          90.318          94.887          98.062         104.605         105.132         105.806         109.545         112.300         120.472         124.470         128.447         137.691         140.704         142.024         143.363         143.524         143.783         158.563         163.886         166.049         172.528
  204         -10.374          15.518          23.808          26.377          29.671          37.490          37.814          40.617          40.853          47.322          54.028          58.426          63.099          64.570          65.835          66.692          69.176          70.301          77.311          78.745          79.885          82.165          83.911          84.506          86.248          88.952          89.479          90.401          94.885          98.139         104.538         105.135         105.746         109.523         112.290         120.443         124.392         128.515         137.696         140.523         141.815         143.126         143.531         143.549         158.605         163.839         166.068         172.638
  205         -10.634          16.164          23.704          27.155          29.939          37.643          38.172          40.859          41.288          47.405          54.230          58.531          63.150          64.452          65.906          66.640          69.025          70.515          77.136          78.714          80.069          82.089          83.873          84.551          86.359          88.964          89.517          90.484          94.883          98.219         104.464         105.138         105.687         109.501         112.280         120.413         124.315         128.581         137.702         140.338         141.593         142.881         143.308         143.537         158.647         163.791         166.089         172.749
  206         -10.880          16.805          23.528          27.952          30.213          37.801          38.534          41.108          41.754          47.480          54.444          58.636          63.211          64.335          65.970          66.582          68.869          70.746          76.955          78.668          80.274          82.009          83.827          84.605          86.473          88.976          89.556          90.568          94.882          98.302         104.383         105.141         105.631         109.477         112.270         120.383         124.237         128.647         137.708         140.150         141.358         142.630         143.060         143.544         158.687         163.743         166.111         172.860
  207         -11.114          17.443          23.315          28.728          30.491          37.965          38.908          41.365          42.244          47.551          54.669          58.739          63.281          64.220          66.019          66.530          68.708          70.991          76.768          78.613          80.495          81.925          83.775          84.667          86.590          88.990          89.596          90.653          94.882          98.388         104.294         105.144         105.577         109.454         112.260         120.352         124.161         128.712         137.714         139.959         141.108         142.372         142.806         143.551         158.728         163.694         166.136         172.973
  208         -11.335          18.076          23.079          29.466          30.774          38.135          39.299          41.629          42.752          47.620          54.903          58.840          63.361          64.107          66.038          66.499          68.542          71.249          76.576          78.550          80.728          81.837          83.717          84.738          86.710          89.004          89.637          90.738          94.883          98.477         104.196         105.148         105.526         109.429         112.249         120.320         124.084         128.776         137.720         139.765         140.846         142.108         142.546         143.558         158.767         163.645         166.163         173.087
  209         -11.544          18.705          22.824          30.156          31.063          38.310          39.712          41.900          43.270          47.692          55.145          58.936          63.451          63.999          66.013          66.507          68.372          71.517          76.379          78.482          80.974          81.745          83.654          84.816          86.833          89.020          89.679          90.824          94.885          98.568         104.091         105.152         105.478         109.404         112.238         120.287         124.009         128.839         137.727         139.569         140.570         141.839         142.279         143.565         158.805         163.596         166.191         173.201
  210         -11.742          19.330          22.555          30.787          31.363          38.489          40.150          42.178          43.790          47.773          55.392          59.026          63.553          63.897          65.945          66.553          68.197          71.794          76.176          78.409          81.229          81.649          83.586          84.902          86.959          89.036          89.723          90.909          94.889          98.661         103.977         105.156         105.433         109.378         112.227         120.254         123.933         128.901         137.733         139.370         140.282         141.564         142.008         143.573         158.842         163.546         166.221         173.315
  211         -11.929          19.950          22.273          31.341          31.690          38.674          40.611          42.462          44.302          47.871          55.645          59.108          63.665          63.802          65.850          66.623          68.019          72.077          75.969          78.333          81.493          81.549          83.513          84.995          87.087          89.054          89.767          90.994          94.894          98.756         103.856         105.161         105.391         109.351         112.216         120.221         123.859         128.961         137.740         139.169         139.983         141.282         141.731         143.580         158.877         163.496         166.253         173.429
  212         -12.104          20.566          21.980          31.777          32.083          38.862          41.095          42.752          44.796          47.999          55.900          59.181          63.717          63.788          65.739          66.708          67.836          72.367          75.756          78.255          81.445          81.765          83.436          85.096          87.218          89.073          89.813          91.079          94.900          98.852         103.727         105.165         105.352         109.324         112.205         120.187         123.786         129.020         137.746         138.965         139.673         140.995         141.449         143.587         158.911         163.447         166.287         173.543
  213         -12.269          21.177          21.676          32.117          32.521          39.055          41.596          43.049          45.255          48.173          56.158          59.241          63.644          63.924          65.619          66.801          67.650          72.660          75.539          78.175          81.337          82.044          83.356          85.205          87.352          89.093          89.859          91.163          94.908          98.950         103.591         105.170         105.316         109.296         112.194         120.152         123.713         129.077         137.753         138.757         139.354         140.702         141.164         143.595         158.944         163.397         166.322         173.656
  214         -12.424          21.363          21.782          32.424          32.945          39.252          42.107          43.351          45.662          48.411          56.416          59.288          63.585          64.071          65.494          66.901          67.460          72.957          75.317          78.094          81.224          82.329          83.274          85.321          87.487          89.115          89.906          91.247          94.918          99.049         103.448         105.176         105.281         109.268         112.183         120.118         123.641         129.132         137.760         138.544         139.029         140.403         140.874         143.602         158.975         163.347         166.359         173.770
  215         -12.569          21.041          22.383          32.721          33.336          39.452          42.621          43.660          46.003          48.728          56.674          59.320          63.541          64.230          65.366          67.006          67.267          73.255          75.090          78.013          81.108          82.616          83.193          85.445          87.625          89.138          89.954          91.330          94.930          99.148         103.300         105.181         105.249         109.239         112.171         120.083         123.571         129.186         137.767         138.321         138.702         140.097         140.582         143.610         159.004         163.298         166.398         173.882
  216         -12.703          20.710          22.978          33.013          33.692          39.656          43.128          43.973          46.276          49.130          56.931          59.333          63.515          64.401          65.237          67.071          67.116          73.554          74.859          77.933          80.988          82.881          83.136          85.575          87.765          89.164          90.002          91.412          94.944          99.248         103.146         105.187         105.218         109.209         112.160         120.048         123.501         129.238         137.774         138.081         138.383         139.786         140.286         143.618         159.031         163.249         166.438         173.994
  217         -12.829          20.370          23.568          33.301          34.016          39.862          43.618          44.292          46.491          49.609          57.186          59.328          63.507          64.583          65.109          66.874          67.229          73.852          74.623          77.854          80.863          82.951          83.276          85.713          87.906          89.192          90.051          91.493          94.959          99.347         102.987         105.188         105.193         109.180         112.149         120.012         123.433         129.287         137.781         137.805         138.092         139.468         139.988         143.625         159.057         163.200         166.479         174.104
  218         -12.944          20.022          24.151          33.586          34.313          40.071          44.082          44.616          46.667          50.147          57.438          59.303          63.517          64.771          64.990          66.674          67.347          74.148          74.384          77.777          80.735          82.876          83.563          85.858          88.048          89.224          90.100          91.574          94.977          99.445         102.824         105.159         105.200         109.150         112.137         119.977         123.366         129.335         137.487         137.788         137.835         139.145         139.688         143.633         159.081         163.151         166.521         174.214
  219         -13.051          19.667          24.730          33.868          34.586          40.281          44.507          44.945          46.826          50.729          57.687          59.258          63.546          64.834          65.012          66.474          67.469          74.139          74.440          77.705          80.603          82.784          83.868          86.009          88.190          89.262          90.149          91.652          94.997          99.542         102.658         105.131         105.207         109.119         112.126         119.942         123.300         129.380         137.138         137.601         137.795         138.816         139.385         143.640         159.103         163.103         166.565         174.322
  220         -13.149          19.303          25.302          34.146          34.839          40.493          44.884          45.278          46.987          51.340          57.932          59.194          63.591          64.727          65.222          66.274          67.596          73.891          74.726          77.638          80.468          82.688          84.177          86.166          88.331          89.307          90.198          91.730          95.019          99.637         102.490         105.102         105.214         109.088         112.115         119.907         123.236         129.422         136.774         137.375         137.802         138.484         139.081         143.648         159.123         163.056         166.609         174.429
  221         -13.237          18.932          25.868          34.418          35.077          40.707          45.201          45.616          47.165          51.967          58.172          59.113          63.651          64.616          65.454          66.076          67.727          73.639          75.003          77.580          80.329          82.589          84.488          86.329          88.467          89.362          90.248          91.806          95.043          99.729         102.321         105.074         105.221         109.057         112.103         119.871         123.173         129.461         136.400         137.153         137.809         138.149         138.776         143.655         159.141         163.009         166.655         174.534
  222         -13.317          18.554          26.427          34.683          35.303          40.921          45.455          45.958          47.370          52.601          58.408          59.015          63.721          64.512          65.699          65.882          67.864          73.383          75.268          77.534          80.186          82.490          84.798          86.496          88.597          89.432          90.298          91.881          95.069          99.815         102.154         105.044         105.229         109.026         112.092         119.836         123.112         129.497         136.021         136.929         137.813         137.816         138.469         143.663         159.158         162.962         166.701         174.638
  223         -13.389          18.168          26.981          34.940          35.521          41.136          45.647          46.304          47.600          53.232          58.639          58.903          63.796          64.418          65.697          65.957          68.006          73.123          75.515          77.504          80.040          82.390          85.106          86.666          88.716          89.522          90.347          91.954          95.098          99.895         101.989         105.014         105.237         108.995         112.081         119.802         123.053         129.529         135.638         136.701         137.479         137.823         138.162         143.670         159.172         162.917         166.748         174.739
  224         -13.451          17.776          27.527          35.186          35.734          41.350          45.789          46.654          47.849          53.854          58.778          58.863          63.868          64.336          65.526          66.228          68.155          72.860          75.738          77.498          79.890          82.291          85.409          86.839          88.821          89.637          90.396          92.026          95.129          99.966         101.831         104.983         105.245         108.963         112.070         119.767         122.996         129.558         135.253         136.465         137.150         137.830         137.855         143.677         159.185         162.872         166.795         174.839
  225         -13.506          17.376          28.067          35.420          35.946          41.563          45.892          47.007          48.107          54.458          58.643          59.081          63.925          64.268          65.381          66.512          68.311          72.594          75.928          77.524          79.737          82.193          85.706          87.012          88.912          89.778          90.445          92.095          95.163         100.022         101.684         104.950         105.253         108.932         112.059         119.733         122.941         129.582         134.868         136.215         136.831         137.549         137.837         143.684         159.197         162.828         166.843         174.937
  226         -13.552          16.969          28.600          35.638          36.160          41.775          45.968          47.363          48.362          55.039          58.499          59.289          63.950          64.217          65.275          66.810          68.474          72.325          76.076          77.592          79.582          82.097          85.995          87.184          88.990          89.946          90.494          92.163          95.199         100.060         101.554         104.915         105.262         108.900         112.049         119.700         122.888         129.602         134.482         135.947         136.530         137.245         137.843         143.691         159.207         162.784         166.891         175.033
  227         -13.590          16.555          29.126          35.841          36.376          41.985          46.027          47.722          48.608          55.590          58.348          59.487          63.926          64.184          65.226          67.121          68.646          72.054          76.180          77.703          79.423          82.003          86.274          87.353          89.060          90.137          90.541          92.230          95.237         100.071         101.448         104.877         105.271         108.869         112.038         119.667         122.837         129.616         134.098         135.656         136.249         136.945         137.850         143.698         159.215         162.742         166.939         175.127
  228         -13.619          16.135          29.644          36.028          36.596          42.193          46.074          48.084          48.840          56.106          58.192          59.672          63.845          64.172          65.239          67.447          68.826          71.780          76.241          77.856          79.261          81.913          86.541          87.516          89.128          90.349          90.589          92.294          95.278         100.049         101.375         104.836         105.280         108.837         112.028         119.634         122.789         129.623         133.716         135.342         135.988         136.650         137.857         143.705         159.222         162.700         166.986         175.218
  229         -13.641          15.707          30.154          36.202          36.816          42.397          46.114          48.447          49.055          56.584          58.032          59.841          63.714          64.183          65.307          67.789          69.015          71.505          76.270          78.040          79.097          81.827          86.793          87.670          89.201          90.579          90.635          92.356          95.322          99.990         101.337         104.792         105.290         108.806         112.018         119.602         122.743         129.624         133.339         135.012         135.742         136.362         137.863         143.711         159.228         162.659         167.034         175.307
  230         -13.654          15.273          30.657          36.364          37.037          42.597          46.152          48.813          49.251          57.022          57.870          59.992          63.547          64.216          65.414          68.147          69.212          71.228          76.277          78.246          78.931          81.746          87.029          87.812          89.282          90.681          90.824          92.417          95.368          99.898         101.334         104.744         105.299         108.775         112.008         119.571         122.700         129.617         132.966         134.670         135.504         136.084         137.870         143.718         159.233         162.620         167.081         175.393
  231         -13.659          14.832          31.152          36.516          37.255          42.792          46.188          49.180          49.427          57.420          57.707          60.121          63.357          64.269          65.547          68.523          69.418          70.952          76.270          78.465          78.762          81.672          87.248          87.936          89.378          90.726          91.081          92.475          95.417          99.778         101.359         104.692         105.309         108.744         111.999         119.540         122.661         129.601         132.600         134.321         135.269         135.819         137.876         143.724         159.236         162.581         167.128         175.477
  232         -13.657          14.383          31.638          36.660          37.468          42.982          46.226          49.548          49.582          57.545          57.778          60.229          63.151          64.340          65.696          68.917          69.631          70.675          76.257          78.591          78.689          81.605          87.447          88.041          89.493          90.770          91.347          92.532          95.469          99.641         101.405         104.636         105.319         108.714         111.990         119.510         122.624         129.574         132.241         133.970         135.033         135.570         137.882         143.730         159.238         162.543         167.174         175.559
  233         -13.647          13.928          32.116          36.798          37.676          43.165          46.267          49.717          49.917          57.385          58.098          60.314          62.936          64.425          65.853          69.327          69.850          70.400          76.242          78.418          78.915          81.549          87.626          88.123          89.629          90.813          91.621          92.586          95.523          99.491         101.465         104.574         105.329         108.684         111.981         119.481         122.591         129.535         131.892         133.619         134.795         135.337         137.888         143.736         159.240         162.507         167.219         175.637
  234         -13.629          13.465          32.585          36.929          37.877          43.341          46.311          49.832          50.286          57.228          58.384          60.379          62.713          64.518          66.015          69.753          70.075          70.129          76.226          78.244          79.139          81.504          87.786          88.182          89.785          90.855          91.900          92.638          95.581          99.337         101.535         104.507         105.339         108.655         111.972         119.453         122.562         129.482         131.555         133.269         134.556         135.121         137.894         143.742         159.240         162.472         167.264         175.713
  235         -13.603          12.996          33.044          37.055          38.070          43.509          46.360          49.927          50.655          57.075          58.639          60.426          62.487          64.615          66.177          69.862          70.190          70.303          76.214          78.069          79.358          81.474          87.928          88.220          89.957          90.895          92.180          92.688          95.642          99.181         101.613         104.435         105.349         108.626         111.963         119.425         122.536         129.412         131.231         132.923         134.317         134.920         137.899         143.747         159.240         162.438         167.307         175.786
  236         -13.570          12.519          33.494          37.176          38.254          43.668          46.414          50.003          51.023          56.927          58.866          60.458          62.258          64.710          66.334          69.605          70.529          70.639          76.206          77.892          79.570          81.462          88.050          88.239          90.143          90.935          92.459          92.735          95.706          99.028         101.694         104.357         105.359         108.598         111.955         119.399         122.515         129.323         130.922         132.583         134.084         134.733         137.905         143.753         159.239         162.405         167.349         175.856
  237         -13.530          12.034          33.934          37.293          38.430          43.817          46.475          50.060          51.390          56.787          59.068          60.477          62.027          64.801          66.480          69.360          70.758          71.088          76.204          77.715          79.771          81.470          88.154          88.244          90.336          90.973          92.733          92.781          95.773          98.882         101.779         104.273         105.369         108.570         111.947         119.374         122.497         129.212         130.632         132.249         133.859         134.558         137.910         143.758         159.237         162.374         167.390         175.922
  238         -13.482          11.542          34.363          37.405          38.595          43.955          46.541          50.100          51.755          56.654          59.249          60.487          61.795          64.884          66.608          69.135          70.984          71.535          76.209          77.538          79.961          81.503          88.213          88.264          90.533          91.009          92.824          93.001          95.844          98.744         101.866         104.184         105.379         108.544         111.940         119.349         122.484         129.079         130.361         131.923         133.646         134.393         137.915         143.763         159.235         162.344         167.430         175.986
  239         -13.428          11.042          34.780          37.512          38.750          44.081          46.615          50.122          52.117          56.530          59.410          60.491          61.563          64.958          66.709          68.940          71.205          71.973          76.222          77.362          80.139          81.562          88.197          88.329          90.729          91.044          92.865          93.258          95.918          98.617         101.954         104.089         105.389         108.518         111.933         119.326         122.475         128.923         130.109         131.606         133.447         134.237         137.920         143.767         159.232         162.316         167.468         176.047
  240         -13.367          10.535          35.186          37.615          38.895          44.195          46.695          50.128          52.476          56.416          59.554          60.490          61.332          65.022          66.769          68.786          71.421          72.397          76.241          77.186          80.306          81.649          88.163          88.387          90.920          91.077          92.903          93.502          95.995          98.505         102.042         103.988         105.398         108.493         111.926         119.304         122.471         128.747         129.875         131.300         133.263         134.090         137.925         143.772         159.229         162.288         167.504         176.104
  241         -13.300          10.019          35.580          37.713          39.030          44.296          46.782          50.118          52.830          56.313          59.681          60.487          61.102          65.077          66.774          68.688          71.628          72.799          76.268          77.011          80.466          81.762          88.118          88.431          91.106          91.109          92.940          93.731          96.075          98.408         102.130         103.883         105.407         108.469         111.920         119.283         122.470         128.555         129.657         131.005         133.097         133.952         137.929         143.776         159.226         162.263         167.539         176.159
  242         -13.227           9.496          35.960          37.807          39.153          44.384          46.876          50.094          53.179          56.222          59.794          60.484          60.875          65.122          66.719          68.652          71.826          73.174          76.302          76.839          80.625          81.897          88.063          88.461          91.139          91.281          92.974          93.943          96.156          98.330         102.217         103.773         105.416         108.446         111.914         119.263         122.475         128.353         129.451         130.723         132.949         133.822         137.933         143.780         159.223         162.239         167.572         176.210
  243         -13.149           8.965          36.326          37.896          39.267          44.458          46.976          50.056          53.521          56.143          59.893          60.482          60.650          65.159          66.608          68.674          72.013          73.519          76.340          76.669          80.789          82.051          87.998          88.478          91.167          91.446          93.006          94.136          96.238          98.272         102.303         103.659         105.425         108.425         111.908         119.244         122.483         128.146         129.253         130.453         132.818         133.700         137.937         143.784         159.219         162.216         167.603         176.257
  244         -13.066           8.426          36.676          37.980          39.369          44.518          47.083          50.005          53.855          56.077          59.978          60.428          60.483          65.188          66.453          68.741          72.187          73.832          76.379          76.503          80.963          82.218          87.924          88.482          91.193          91.597          93.035          94.310          96.320          98.234         102.386         103.544         105.433         108.405         111.903         119.227         122.495         127.940         129.064         130.197         132.704         133.587         137.941         143.787         159.216         162.195         167.632         176.302
  245         -12.980           7.880          37.009          38.059          39.462          44.565          47.196          49.942          54.179          56.025          60.050          60.211          60.487          65.210          66.271          68.837          72.349          74.111          76.342          76.418          81.151          82.394          87.840          88.473          91.217          91.734          93.062          94.464          96.399          98.217         102.467         103.427         105.441         108.386         111.898         119.211         122.510         127.740         128.881         129.955         132.606         133.482         137.944         143.790         159.212         162.175         167.659         176.342
  246         -12.891           7.328          37.325          38.132          39.544          44.598          47.314          49.869          54.490          55.987          59.998          60.109          60.495          65.226          66.074          68.950          72.496          74.358          76.187          76.452          81.353          82.576          87.747          88.454          91.240          91.857          93.087          94.600          96.476          98.219         102.544         103.311         105.449         108.368         111.893         119.196         122.529         127.548         128.708         129.728         132.522         133.385         137.947         143.793         159.209         162.157         167.684         176.380
  247         -12.802           6.771          37.620          38.200          39.617          44.620          47.437          49.785          54.785          55.966          59.791          60.155          60.509          65.237          65.873          69.071          72.628          74.577          76.039          76.478          81.567          82.763          87.644          88.426          91.260          91.965          93.109          94.718          96.548          98.237         102.617         103.197         105.455         108.352         111.889         119.183         122.549         127.367         128.544         129.517         132.452         133.297         137.950         143.796         159.206         162.141         167.707         176.414
  248         -12.712           6.213          37.894          38.261          39.681          44.630          47.565          49.692          55.057          55.965          59.591          60.190          60.526          65.245          65.674          69.194          72.746          74.770          75.900          76.495          81.786          82.952          87.532          88.390          91.278          92.058          93.129          94.820          96.615          98.269         102.684         103.087         105.462         108.337         111.886         119.171         122.572         127.199         128.392         129.322         132.393         133.218         137.952         143.798         159.203         162.127         167.728         176.444
  249         -12.625           5.656          38.144          38.317          39.735          44.632          47.696          49.590          55.296          55.990          59.399          60.215          60.547          65.249          65.484          69.313          72.848          74.940          75.770          76.500          82.003          83.143          87.411          88.350          91.295          92.136          93.147          94.907          96.676          98.310         102.744         102.986         105.467         108.324         111.882         119.160         122.595         127.046         128.255         129.145         132.344         133.147         137.955         143.800         159.200         162.114         167.746         176.471
  250         -12.542           5.107          38.365          38.368          39.782          44.626          47.830          49.482          55.484          56.055          59.216          60.233          60.568          65.251          65.307          69.424          72.935          75.091          75.653          76.495          82.209          83.336          87.283          88.308          91.309          92.201          93.162          94.982          96.730          98.356         102.786         102.903         105.472         108.313         111.880         119.151         122.618         126.910         128.133         128.987         132.304         133.086         137.957         143.802         159.197         162.102         167.762         176.495
  251         -12.466           4.576          38.407          38.563          39.820          44.616          47.966          49.368          55.608          56.169          59.046          60.246          60.589          65.149          65.252          69.525          73.008          75.224          75.549          76.480          82.395          83.527          87.151          88.266          91.321          92.254          93.175          95.043          96.778          98.402         102.767         102.884         105.477         108.303         111.877         119.143         122.640         126.792         128.028         128.850         132.272         133.034         137.958         143.804         159.195         162.093         167.775         176.515
  252         -12.399           4.077          38.441          38.728          39.851          44.602          48.102          49.249          55.678          56.315          58.891          60.254          60.607          65.013          65.251          69.611          73.067          75.340          75.461          76.457          82.554          83.711          87.020          88.228          91.331          92.296          93.186          95.093          96.818          98.446         102.705         102.913         105.480         108.295         111.875         119.136         122.660         126.693         127.942         128.735         132.247         132.991         137.960         143.805         159.193         162.085         167.786         176.531
  253         -12.344           3.631          38.468          38.859          39.875          44.589          48.237          49.127          55.717          56.461          58.756          60.260          60.622          64.903          65.251          69.681          73.112          75.390          75.436          76.430          82.680          83.879          86.898          88.196          91.338          92.327          93.194          95.132          96.850          98.483         102.648         102.942         105.483         108.289         111.874         119.131         122.677         126.615         127.874         128.643         132.229         132.958         137.961         143.806         159.192         162.079         167.795         176.544
  254         -12.302           3.268          38.488          38.954          39.891          44.578          48.367          49.007          55.740          56.584          58.650          60.264          60.633          64.822          65.250          69.733          73.144          75.339          75.510          76.405          82.771          84.017          86.796          88.171          91.344          92.348          93.200          95.160          96.874          98.511         102.605         102.965         105.485         108.284         111.873         119.128         122.690         126.558         127.825         128.577         132.216         132.934         137.961         143.807         159.191         162.075         167.801         176.553
  255         -12.277           3.027          38.500          39.012          39.901          44.570          48.479          48.901          55.752          56.666          58.580          60.266          60.640          64.772          65.249          69.765          73.163          75.307          75.558          76.386          82.826          84.109          86.727          88.155          91.347          92.361          93.203          95.177          96.888          98.529         102.578         102.979         105.486         108.281         111.872         119.125         122.698         126.524         127.796         128.537         132.208         132.920         137.962         143.807         159.190         162.072         167.805         176.558
  256         -12.268           2.941          38.503          39.031          39.905          44.567          48.533          48.849          55.755          56.695          58.555          60.267          60.642          64.756          65.249          69.775          73.169          75.296          75.574          76.379          82.844          84.141          86.703          88.150          91.348          92.365          93.204          95.182          96.893          98.535         102.569         102.983         105.487         108.280         111.872         119.125         122.700         126.513         127.786         128.523         132.205         132.915         137.962         143.807         159.190         162.071         167.806         176.560
