============= Direct results (without any inter/extrapolation) ==================
 For present temperature (in Kelvin): T=    300.000
   The cold contribution (in eV/atom): U_0 =   -1962.948
   The specific heat (in k_b/atom): C_v=     2.925
   The vibrational entropy (in k_b/atom): S_vib =     5.168
   The internal energy (in eV/atom): U_vib =     0.080
   The vibrational contribution (in eV/atom): F_vib = U_vib -T.S_vib =    -0.054
   The harmonic free energy (in eV/atom) -->  F_tot^HA = U_0 + F_vib =   -1963.002
   Useful quantities for melting :
      The mean square displacement (in a.u.): sqrt(<u^2>) =     0.212
      The <Omega^(-2)> factor (in THz^(-2)) =     0.475
      The Wigner-Seitz radius (in a.u.) : d_at =     6.100
      The average mass / proton-electron mass ratio (in a.u.) =   242.000
      The Lindemann constant : sqrt(<u^2>)/d_at =     0.035
      The integral of vDOS =     1.000
 
============= Harmonic Approximation (HA) ==================
   Note that the following results come from an EXTRAPOLATION:
     1/ F_vib^HA(T) is computed for each T using vDOS(T=  300)
     2/ F_tot^HA(T) = F_vib^HA(T) + U_0
   T         F_vib^HA(T)   F_tot^HA(T)           C_v(T)         S_vib(T)        U_vib(T)        MSD(T)
   100           0.013       -1962.935           2.423           2.149           0.031           0.128
   200          -0.014       -1962.963           2.836           3.998           0.055           0.174
   300          -0.054       -1963.002           2.925           5.168           0.080           0.212
   400          -0.102       -1963.051           2.958           6.015           0.105           0.244
   500          -0.157       -1963.106           2.973           6.676           0.130           0.272
   600          -0.217       -1963.165           2.981           7.219           0.156           0.298
   700          -0.281       -1963.230           2.986           7.679           0.182           0.322
   800          -0.349       -1963.298           2.989           8.078           0.208           0.344
   900          -0.420       -1963.369           2.992           8.430           0.233           0.365
  1000          -0.495       -1963.443           2.993           8.746           0.259           0.384
  1100          -0.571       -1963.519           2.994           9.031           0.285           0.403
  1200          -0.650       -1963.598           2.995           9.292           0.311           0.421
  1300          -0.731       -1963.680           2.996           9.531           0.337           0.438
  1400          -0.814       -1963.763           2.996           9.753           0.362           0.455
  1500          -0.899       -1963.848           2.997           9.960           0.388           0.471
  1600          -0.986       -1963.934           2.997          10.154           0.414           0.486
  1700          -1.074       -1964.023           2.998          10.335           0.440           0.501
  1800          -1.164       -1964.112           2.998          10.507           0.466           0.515
  1900          -1.255       -1964.204           2.998          10.669           0.492           0.530
  2000          -1.348       -1964.296           2.998          10.822           0.517           0.543
  2100          -1.442       -1964.390           2.998          10.969           0.543           0.557
  2200          -1.537       -1964.485           2.999          11.108           0.569           0.570
  2300          -1.633       -1964.582           2.999          11.242           0.595           0.583
  2400          -1.731       -1964.679           2.999          11.369           0.621           0.595
  2500          -1.829       -1964.777           2.999          11.492           0.647           0.607
  2600          -1.929       -1964.877           2.999          11.609           0.672           0.619
  2700          -2.029       -1964.978           2.999          11.722           0.698           0.631
  2800          -2.131       -1965.079           2.999          11.831           0.724           0.643
  2900          -2.233       -1965.181           2.999          11.937           0.750           0.654
  3000          -2.336       -1965.285           2.999          12.038           0.776           0.665
  3100          -2.441       -1965.389           2.999          12.137           0.802           0.676
  3200          -2.546       -1965.494           2.999          12.232           0.827           0.687
  3300          -2.651       -1965.600           2.999          12.324           0.853           0.698
  3400          -2.758       -1965.706           2.999          12.414           0.879           0.708
  3500          -2.865       -1965.814           2.999          12.501           0.905           0.719
  3600          -2.973       -1965.922           2.999          12.585           0.931           0.729
  3700          -3.082       -1966.031           2.999          12.667           0.957           0.739
  3800          -3.192       -1966.140           3.000          12.747           0.983           0.749
  3900          -3.302       -1966.250           3.000          12.825           1.008           0.759
  4000          -3.413       -1966.361           3.000          12.901           1.034           0.768
  4100          -3.524       -1966.473           3.000          12.975           1.060           0.778
  4200          -3.636       -1966.585           3.000          13.048           1.086           0.787
  4300          -3.749       -1966.697           3.000          13.118           1.112           0.797
  4400          -3.862       -1966.811           3.000          13.187           1.138           0.806
  4500          -3.976       -1966.925           3.000          13.255           1.163           0.815
  4600          -4.091       -1967.039           3.000          13.321           1.189           0.824
  4700          -4.206       -1967.154           3.000          13.385           1.215           0.833
  4800          -4.322       -1967.270           3.000          13.448           1.241           0.842
  4900          -4.438       -1967.386           3.000          13.510           1.267           0.850
  5000          -4.554       -1967.503           3.000          13.571           1.293           0.859
  5100          -4.672       -1967.620           3.000          13.630           1.319           0.868
  5200          -4.789       -1967.738           3.000          13.688           1.344           0.876
  5300          -4.908       -1967.856           3.000          13.745           1.370           0.884
  5400          -5.026       -1967.975           3.000          13.802           1.396           0.893
  5500          -5.145       -1968.094           3.000          13.857           1.422           0.901
  5600          -5.265       -1968.213           3.000          13.911           1.448           0.909
  5700          -5.385       -1968.333           3.000          13.964           1.474           0.917
  5800          -5.506       -1968.454           3.000          14.016           1.500           0.925
  5900          -5.627       -1968.575           3.000          14.067           1.525           0.933
  6000          -5.748       -1968.696           3.000          14.118           1.551           0.941
  6100          -5.870       -1968.818           3.000          14.167           1.577           0.949
  6200          -5.992       -1968.941           3.000          14.216           1.603           0.957
  6300          -6.115       -1969.063           3.000          14.264           1.629           0.964
  6400          -6.238       -1969.186           3.000          14.311           1.655           0.972
  6500          -6.362       -1969.310           3.000          14.358           1.680           0.979
  6600          -6.486       -1969.434           3.000          14.403           1.706           0.987
  6700          -6.610       -1969.558           3.000          14.449           1.732           0.994
  6800          -6.735       -1969.683           3.000          14.493           1.758           1.002
  6900          -6.860       -1969.808           3.000          14.537           1.784           1.009
  7000          -6.985       -1969.933           3.000          14.580           1.810           1.016
  7100          -7.111       -1970.059           3.000          14.623           1.836           1.024
  7200          -7.237       -1970.185           3.000          14.665           1.861           1.031
  7300          -7.364       -1970.312           3.000          14.706           1.887           1.038
  7400          -7.491       -1970.439           3.000          14.747           1.913           1.045
  7500          -7.618       -1970.566           3.000          14.787           1.939           1.052
  7600          -7.745       -1970.694           3.000          14.827           1.965           1.059
  7700          -7.873       -1970.822           3.000          14.866           1.991           1.066
  7800          -8.002       -1970.950           3.000          14.905           2.017           1.073
  7900          -8.130       -1971.079           3.000          14.943           2.042           1.080
  8000          -8.259       -1971.208           3.000          14.981           2.068           1.087
  8100          -8.388       -1971.337           3.000          15.018           2.094           1.093
  8200          -8.518       -1971.466           3.000          15.055           2.120           1.100
  8300          -8.648       -1971.596           3.000          15.091           2.146           1.107
  8400          -8.778       -1971.726           3.000          15.127           2.172           1.113
  8500          -8.909       -1971.857           3.000          15.162           2.197           1.120
  8600          -9.039       -1971.988           3.000          15.198           2.223           1.127
  8700          -9.171       -1972.119           3.000          15.232           2.249           1.133
  8800          -9.302       -1972.250           3.000          15.266           2.275           1.140
  8900          -9.434       -1972.382           3.000          15.300           2.301           1.146
  9000          -9.566       -1972.514           3.000          15.334           2.327           1.152
  9100          -9.698       -1972.646           3.000          15.367           2.353           1.159
  9200          -9.830       -1972.779           3.000          15.400           2.378           1.165
  9300          -9.963       -1972.912           3.000          15.432           2.404           1.171
  9400         -10.096       -1973.045           3.000          15.464           2.430           1.178
  9500         -10.230       -1973.178           3.000          15.496           2.456           1.184
  9600         -10.364       -1973.312           3.000          15.528           2.482           1.190
  9700         -10.497       -1973.446           3.000          15.559           2.508           1.196
  9800         -10.632       -1973.580           3.000          15.589           2.534           1.203
  9900         -10.766       -1973.714           3.000          15.620           2.559           1.209
 10000         -10.901       -1973.849           3.000          15.650           2.585           1.215
