# Phonon frequencies in cm-1
    1           0.000           0.000           0.000         124.101         124.101         181.487
    2           1.491           1.546           3.009         124.125         124.146         181.495
    3           2.982           3.092           6.018         124.199         124.280         181.516
    4           4.473           4.639           9.027         124.322         124.505         181.553
    5           5.964           6.185          12.035         124.494         124.817         181.603
    6           7.454           7.731          15.043         124.714         125.218         181.668
    7           8.944           9.278          18.049         124.981         125.704         181.747
    8          10.434          10.824          21.054         125.296         126.274         181.840
    9          11.923          12.371          24.058         125.658         126.926         181.946
   10          13.411          13.917          27.059         126.065         127.659         182.066
   11          14.899          15.464          30.059         126.516         128.468         182.200
   12          16.386          17.010          33.056         127.011         129.353         182.346
   13          17.871          18.557          36.051         127.549         130.309         182.505
   14          19.356          20.103          39.043         128.127         131.334         182.676
   15          20.838          21.649          42.031         128.746         132.425         182.860
   16          22.319          23.195          45.015         129.404         133.579         183.055
   17          23.798          24.740          47.995         130.098         134.792         183.261
   18          25.275          26.285          50.971         130.829         136.061         183.478
   19          26.749          27.830          53.941         131.594         137.383         183.705
   20          28.221          29.374          56.905         132.392         138.754         183.942
   21          29.689          30.917          59.864         133.222         140.170         184.189
   22          31.154          32.458          62.815         134.081         141.630         184.445
   23          32.614          33.999          65.759         134.969         143.128         184.709
   24          34.071          35.538          68.696         135.884         144.663         184.981
   25          35.523          37.076          71.624         136.824         146.231         185.261
   26          36.970          38.612          74.543         137.788         147.828         185.547
   27          38.411          40.146          77.452         138.774         149.452         185.840
   28          39.847          41.677          80.351         139.780         151.100         186.139
   29          41.276          43.206          83.238         140.806         152.768         186.443
   30          42.699          44.733          86.114         141.850         154.455         186.752
   31          44.115          46.255          88.978         142.910         156.157         187.065
   32          45.522          47.775          91.829         143.984         157.871         187.382
   33          46.922          49.291          94.665         145.072         159.596         187.703
   34          48.314          50.802          97.488         146.172         161.328         188.025
   35          49.696          52.309         100.295         147.282         163.066         188.351
   36          51.069          53.811         103.086         148.401         164.806         188.677
   37          52.432          55.308         105.860         149.529         166.547         189.005
   38          53.784          56.799         108.617         150.662         168.287         189.333
   39          55.126          58.284         111.356         151.801         170.024         189.662
   40          56.456          59.762         114.076         152.944         171.755         189.990
   41          57.775          61.234         116.776         154.090         173.479         190.317
   42          59.082          62.698         119.457         155.237         175.194         190.643
   43          60.375          64.154         122.116         156.385         176.898         190.967
   44          61.656          65.602         124.753         157.532         178.590         191.289
   45          62.923          67.041         127.367         158.678         180.268         191.608
   46          64.176          68.471         129.959         159.820         181.930         191.924
   47          65.414          69.891         132.526         160.959         183.575         192.237
   48          66.638          71.300         135.069         162.093         185.201         192.545
   49          67.846          72.699         137.586         163.220         186.808         192.850
   50          69.039          74.086         140.078         164.342         188.393         193.150
   51          70.215          75.461         142.542         165.455         189.956         193.445
   52          71.375          76.823         144.979         166.560         191.496         193.735
   53          72.518          78.173         147.387         167.655         193.010         194.019
   54          73.643          79.509         149.767         168.740         194.297         194.499
   55          74.751          80.830         152.117         169.813         194.569         195.961
   56          75.840          82.137         154.437         170.875         194.835         197.395
   57          76.912          83.428         156.726         171.923         195.095         198.799
   58          77.964          84.704         158.984         172.959         195.348         200.174
   59          78.997          85.962         161.209         173.980         195.593         201.519
   60          80.010          87.204         163.401         174.986         195.832         202.831
   61          81.004          88.427         165.560         175.976         196.064         204.111
   62          81.977          89.632         167.685         176.950         196.288         205.358
   63          82.930          90.818         169.774         177.908         196.504         206.571
   64          83.862          91.984         171.829         178.847         196.713         207.749
   65          84.772          93.129         173.847         179.768         196.915         208.892
   66          85.662          94.254         175.829         180.671         197.109         209.999
   67          86.529          95.357         177.773         181.554         197.295         211.070
   68          87.375          96.437         179.680         182.418         197.474         212.103
   69          88.198          97.495         181.548         183.261         197.645         213.099
   70          88.998          98.528         183.377         184.083         197.808         214.057
   71          89.776          99.538         184.884         185.167         197.964         214.976
   72          90.530         100.522         185.663         186.916         198.112         215.856
   73          91.262         101.481         186.419         188.624         198.253         216.697
   74          91.969         102.414         187.153         190.290         198.387         217.498
   75          92.653         103.319         187.864         191.915         198.513         218.259
   76          93.313         104.197         188.551         193.497         198.632         218.981
   77          93.949         105.047         189.214         195.035         198.745         219.662
   78          94.560         105.868         189.853         196.529         198.850         220.302
   79          95.147         106.659         190.467         197.979         198.950         220.902
   80          95.708         107.421         191.056         199.042         199.382         221.461
   81          96.245         108.151         191.620         199.129         200.740         221.981
   82          96.757         108.851         192.159         199.210         202.050         222.459
   83          97.243         109.518         192.671         199.284         203.313         222.898
   84          97.704         110.153         193.157         199.353         204.526         223.298
   85          98.140         110.755         193.617         199.417         205.689         223.658
   86          98.550         111.323         194.050         199.476         206.801         223.979
   87          98.933         111.858         194.457         199.530         207.860         224.264
   88          99.291         112.357         194.836         199.578         208.866         224.511
   89          99.623         112.822         195.187         199.623         209.815         224.724
   90          99.929         113.251         195.512         199.663         210.707         224.902
   91         100.208         113.645         195.809         199.699         211.539         225.049
   92         100.461         114.002         196.077         199.730         212.308         225.166
   93         100.688         114.322         196.318         199.758         213.012         225.256
   94         100.888         114.606         196.531         199.783         213.647         225.322
   95         101.061         114.852         196.716         199.803         214.209         225.368
   96         101.208         115.061         196.872         199.821         214.695         225.396
   97         101.329         115.233         197.001         199.835         215.101         225.412
   98         101.422         115.366         197.100         199.846         215.421         225.419
   99         101.489         115.461         197.172         199.853         215.654         225.421
  100         101.529         115.519         197.214         199.858         215.795         225.421
  101         101.543         115.538         197.229         199.860         215.842         225.421
  102         101.588         115.565         197.190         199.848         215.836         225.462
  103         101.724         115.645         197.075         199.815         215.821         225.583
  104         101.951         115.779         196.885         199.760         215.794         225.784
  105         102.267         115.966         196.624         199.682         215.757         226.059
  106         102.671         116.206         196.297         199.582         215.710         226.404
  107         103.162         116.498         195.909         199.460         215.652         226.815
  108         103.736         116.841         195.465         199.317         215.584         227.284
  109         104.393         117.235         194.972         199.151         215.505         227.807
  110         105.129         117.678         194.436         198.962         215.416         228.377
  111         105.942         118.170         193.861         198.752         215.316         228.988
  112         106.829         118.710         193.253         198.521         215.206         229.635
  113         107.786         119.295         192.617         198.267         215.086         230.313
  114         108.809         119.926         191.958         197.991         214.955         231.017
  115         109.897         120.600         191.279         197.694         214.814         231.742
  116         111.044         121.315         190.584         197.375         214.663         232.485
  117         112.247         122.072         189.877         197.034         214.503         233.242
  118         113.503         122.867         189.160         196.672         214.332         234.010
  119         114.808         123.700         188.435         196.289         214.151         234.785
  120         116.157         124.568         187.706         195.884         213.961         235.566
  121         117.547         125.470         186.974         195.458         213.761         236.349
  122         118.975         126.405         186.242         195.011         213.552         237.132
  123         120.436         127.370         185.509         194.542         213.334         237.914
  124         121.927         128.363         184.779         194.053         213.106         238.691
  125         123.444         129.384         184.053         193.543         212.870         239.463
  126         124.983         130.431         183.330         193.013         212.625         240.227
  127         126.541         131.501         182.613         192.461         212.372         240.982
  128         128.115         132.592         181.903         191.890         212.112         241.727
  129         129.700         133.704         181.199         191.298         211.843         242.460
  130         131.294         134.835         180.503         190.686         211.567         243.180
  131         132.893         135.982         179.815         190.053         211.285         243.885
  132         134.493         137.145         179.136         189.401         210.997         244.574
  133         136.092         138.321         178.466         188.730         210.702         245.247
  134         137.686         139.510         177.806         188.038         210.403         245.902
  135         139.271         140.708         177.155         187.328         210.099         246.538
  136         140.845         141.916         176.513         186.598         209.792         247.154
  137         142.404         143.131         175.882         185.849         209.482         247.749
  138         143.944         144.353         175.260         185.081         209.170         248.322
  139         145.464         145.578         174.649         184.294         208.858         248.872
  140         146.807         146.958         174.048         183.489         208.546         249.399
  141         148.038         148.424         173.456         182.665         208.236         249.902
  142         149.270         149.859         172.874         181.824         207.928         250.379
  143         150.500         151.259         172.302         180.964         207.626         250.830
  144         151.729         152.619         171.739         180.086         207.330         251.255
  145         152.954         153.938         171.186         179.191         207.042         251.652
  146         154.176         155.210         170.641         178.279         206.764         252.021
  147         155.391         156.433         170.105         177.349         206.498         252.361
  148         156.601         157.601         169.577         176.402         206.247         252.671
  149         157.802         158.712         169.057         175.439         206.012         252.952
  150         158.995         159.762         168.545         174.458         205.797         253.201
  151         160.178         160.746         168.039         173.462         205.603         253.420
  152         161.351         161.661         167.540         172.449         205.433         253.606
  153         162.503         162.512         167.048         171.421         205.290         253.760
  154         163.268         163.661         166.561         170.377         205.175         253.881
  155         163.954         164.796         166.080         169.318         205.091         253.969
  156         164.556         165.604         165.915         168.245         205.038         254.023
  157         165.050         165.155         166.965         167.212         205.020         254.042
  158         164.594         165.563         165.887         168.272         205.040         254.022
  159         164.140         164.795         165.887         169.317         205.092         253.968
  160         163.689         163.689         166.128         170.346         205.176         253.880
  161         162.569         163.239         166.284         171.359         205.291         253.758
  162         161.437         162.791         166.358         172.354         205.435         253.601
  163         160.292         162.343         166.351         173.331         205.606         253.410
  164         159.134         161.895         166.263         174.289         205.802         253.183
  165         157.963         161.447         166.099         175.229         206.019         252.921
  166         156.780         160.998         165.859         176.150         206.254         252.623
  167         155.585         160.547         165.548         177.051         206.504         252.289
  168         154.378         160.095         165.167         177.931         206.765         251.919
  169         153.160         159.639         164.721         178.791         207.033         251.512
  170         151.930         159.180         164.211         179.630         207.305         251.069
  171         150.689         158.718         163.642         180.448         207.577         250.590
  172         149.437         158.251         163.016         181.244         207.846         250.073
  173         148.174         157.779         162.336         182.018         208.108         249.519
  174         146.901         157.302         161.605         182.770         208.361         248.928
  175         145.618         156.818         160.825         183.500         208.600         248.301
  176         144.324         156.328         159.999         184.207         208.825         247.635
  177         143.021         155.831         159.128         184.891         209.031         246.933
  178         141.708         155.327         158.215         185.552         209.218         246.193
  179         140.385         154.814         157.262         186.190         209.382         245.416
  180         139.054         154.293         156.271         186.805         209.522         244.601
  181         137.713         153.762         155.242         187.396         209.636         243.749
  182         136.364         153.222         154.178         187.964         209.722         242.860
  183         135.007         152.671         153.080         188.508         209.779         241.934
  184         133.641         151.948         152.110         189.028         209.806         240.971
  185         132.266         150.785         151.538         189.525         209.802         239.972
  186         130.885         149.591         150.954         189.998         209.765         238.935
  187         129.495         148.368         150.358         190.448         209.694         237.862
  188         128.098         147.115         149.749         190.874         209.589         236.753
  189         126.694         145.834         149.128         191.276         209.449         235.608
  190         125.283         144.526         148.493         191.655         209.273         234.427
  191         123.865         143.191         147.844         192.011         209.061         233.210
  192         122.440         141.830         147.180         192.343         208.813         231.959
  193         121.009         140.444         146.502         192.652         208.527         230.673
  194         119.572         139.033         145.809         192.939         208.204         229.352
  195         118.129         137.598         145.100         193.202         207.843         227.998
  196         116.680         136.139         144.375         193.443         207.444         226.610
  197         115.225         134.657         143.633         193.662         207.008         225.189
  198         113.765         133.152         142.875         193.858         206.533         223.736
  199         112.300         131.625         142.099         194.033         206.020         222.251
  200         110.830         130.076         141.305         194.186         205.469         220.735
  201         109.355         128.506         140.493         194.317         204.879         219.189
  202         107.875         126.915         139.662         194.428         204.252         217.613
  203         106.391         125.304         138.812         194.518         203.588         216.008
  204         104.902         123.673         137.942         194.587         202.885         214.375
  205         103.410         122.022         137.052         194.637         202.146         212.714
  206         101.913         120.353         136.141         194.667         201.369         211.027
  207         100.413         118.664         135.209         194.678         200.556         209.315
  208          98.909         116.957         134.256         194.670         199.706         207.578
  209          97.402         115.233         133.280         194.644         198.821         205.818
  210          95.891         113.491         132.281         194.599         197.900         204.036
  211          94.377         111.732         131.258         194.538         196.944         202.233
  212          92.860         109.957         130.211         194.459         195.954         200.411
  213          91.341         108.165         129.139         194.364         194.930         198.571
  214          89.818         106.358         128.042         193.873         194.252         196.714
  215          88.294         104.536         126.918         192.783         194.126         194.841
  216          86.766         102.700         125.766         191.662         192.956         193.984
  217          85.237         100.849         124.587         190.509         191.058         193.828
  218          83.705          98.985         123.378         189.151         189.326         193.658
  219          82.171          97.108         122.139         187.236         188.113         193.475
  220          80.636          95.218         120.869         185.314         186.872         193.279
  221          79.098          93.317         119.567         183.389         185.602         193.071
  222          77.559          91.404         118.232         181.461         184.306         192.852
  223          76.019          89.481         116.862         179.534         182.984         192.621
  224          74.476          87.547         115.456         177.609         181.637         192.381
  225          72.933          85.605         114.014         175.690         180.266         192.131
  226          71.388          83.653         112.534         173.778         178.872         191.872
  227          69.843          81.694         111.014         171.876         177.457         191.604
  228          68.296          79.727         109.454         169.986         176.021         191.329
  229          66.748          77.753         107.852         168.111         174.566         191.047
  230          65.199          75.774         106.206         166.254         173.094         190.759
  231          63.650          73.790         104.517         164.416         171.605         190.465
  232          62.100          71.802         102.783         162.601         170.101         190.166
  233          60.549          69.811         101.002         160.811         168.583         189.863
  234          58.998          67.818          99.174         159.049         167.054         189.556
  235          57.446          65.823          97.298         157.316         165.515         189.246
  236          55.893          63.827          95.373         155.615         163.967         188.934
  237          54.341          61.832          93.399         153.948         162.412         188.621
  238          52.788          59.839          91.376         152.317         160.852         188.307
  239          51.235          57.849          89.303         150.723         159.289         187.993
  240          49.681          55.862          87.180         149.169         157.726         187.679
  241          48.128          53.880          85.008         147.655         156.163         187.367
  242          46.574          51.904          82.787         146.184         154.604         187.056
  243          45.020          49.935          80.518         144.755         153.051         186.748
  244          43.466          47.975          78.201         143.371         151.505         186.444
  245          41.912          46.024          75.837         142.033         149.971         186.143
  246          40.358          44.084          73.428         140.740         148.449         185.847
  247          38.805          42.156          70.974         139.494         146.944         185.556
  248          37.251          40.241          68.476         138.294         145.458         185.271
  249          35.697          38.341          65.938         137.142         143.993         184.992
  250          34.144          36.456          63.358         136.038         142.553         184.721
  251          32.590          34.588          60.741         134.982         141.141         184.457
  252          31.037          32.738          58.086         133.975         139.760         184.201
  253          29.484          30.908          55.397         133.015         138.414         183.954
  254          27.931          29.097          52.674         132.104         137.106         183.716
  255          26.378          27.307          49.919         131.242         135.840         183.488
  256          24.825          25.538          47.135         130.429         134.619         183.270
  257          23.272          23.792          44.322         129.665         133.447         183.063
  258          21.720          22.069          41.484         128.949         132.328         182.867
  259          20.168          20.368          38.621         128.283         131.265         182.683
  260          18.616          18.691          35.736         127.665         130.263         182.511
  261          17.036          17.064          32.830         127.097         129.324         182.351
  262          15.403          15.512          29.905         126.577         128.452         182.204
  263          13.792          13.961          26.963         126.107         127.652         182.070
  264          12.201          12.409          24.005         125.686         126.925         181.949
  265          10.630          10.858          21.034         125.315         126.276         181.842
  266           9.076           9.306          18.051         124.993         125.708         181.748
  267           7.538           7.755          15.058         124.720         125.222         181.669
  268           6.014           6.204          12.057         124.497         124.821         181.604
  269           4.500           4.653           9.048         124.324         124.507         181.553
  270           2.995           3.102           6.035         124.200         124.281         181.517
  271           1.496           1.551           3.018         124.125         124.146         181.495
  272           0.000           0.000           0.000         124.101         124.101         181.487
  273           1.596           1.596           4.250         124.084         124.084         181.497
  274           3.192           3.192           8.497         124.033         124.033         181.527
  275           4.788           4.788          12.739         123.948         123.948         181.576
  276           6.384           6.384          16.973         123.829         123.829         181.644
  277           7.980           7.980          21.197         123.676         123.676         181.731
  278           9.576           9.576          25.407         123.490         123.490         181.835
  279          11.172          11.172          29.602         123.270         123.270         181.955
  280          12.768          12.768          33.779         123.017         123.017         182.091
  281          14.364          14.364          37.936         122.730         122.730         182.242
  282          15.959          15.959          42.069         122.410         122.410         182.405
  283          17.555          17.555          46.176         122.057         122.057         182.579
  284          19.150          19.150          50.256         121.671         121.671         182.762
  285          20.744          20.744          54.305         121.253         121.253         182.954
  286          22.339          22.339          58.321         120.802         120.802         183.150
  287          23.933          23.933          62.301         120.319         120.319         183.351
  288          25.526          25.526          66.244         119.805         119.805         183.552
  289          27.119          27.119          70.147         119.259         119.259         183.753
  290          28.711          28.711          74.008         118.681         118.681         183.951
  291          30.303          30.303          77.825         118.073         118.073         184.143
  292          31.893          31.893          81.595         117.434         117.434         184.327
  293          33.482          33.482          85.316         116.765         116.765         184.500
  294          35.070          35.070          88.987         116.066         116.066         184.660
  295          36.656          36.656          92.606         115.338         115.338         184.804
  296          38.241          38.241          96.169         114.581         114.581         184.930
  297          39.824          39.824          99.677         113.795         113.795         185.035
  298          41.405          41.405         103.126         112.981         112.981         185.116
  299          42.984          42.984         106.515         112.139         112.139         185.171
  300          44.560          44.560         109.843         111.270         111.270         185.197
  301          46.133          46.133         110.374         110.374         113.107         185.191
  302          47.703          47.703         109.451         109.451         116.307         185.151
  303          49.270          49.270         108.503         108.503         119.440         185.074
  304          50.834          50.834         107.529         107.529         122.506         184.959
  305          52.393          52.393         106.531         106.531         125.503         184.801
  306          53.949          53.949         105.508         105.508         128.430         184.600
  307          55.499          55.499         104.461         104.461         131.285         184.352
  308          57.045          57.045         103.390         103.390         134.068         184.055
  309          58.585          58.585         102.297         102.297         136.778         183.708
  310          60.120          60.120         101.182         101.182         139.414         183.307
  311          61.649          61.649         100.045         100.045         141.974         182.851
  312          63.171          63.171          98.887          98.887         144.459         182.338
  313          64.686          64.686          97.708          97.708         146.867         181.766
  314          66.194          66.194          96.510          96.510         149.199         181.133
  315          67.694          67.694          95.291          95.291         151.453         180.437
  316          69.186          69.186          94.054          94.054         153.629         179.677
  317          70.669          70.669          92.798          92.798         155.727         178.850
  318          72.143          72.143          91.525          91.525         157.747         177.957
  319          73.607          73.607          90.235          90.235         159.689         176.994
  320          75.061          75.061          88.927          88.927         161.552         175.961
  321          76.504          76.504          87.604          87.604         163.338         174.857
  322          77.937          77.937          86.265          86.265         165.045         173.680
  323          79.357          79.357          84.911          84.911         166.675         172.429
  324          80.765          80.765          83.543          83.543         168.228         171.104
  325          82.161          82.161          82.161          82.161         169.704         169.704
  326          82.186          82.186          82.214          82.214         169.715         169.715
  327          82.262          82.262          82.373          82.373         169.750         169.750
  328          82.389          82.389          82.638          82.638         169.807         169.807
  329          82.565          82.565          83.005          83.005         169.887         169.887
  330          82.792          82.792          83.474          83.474         169.991         169.991
  331          83.067          83.067          84.041          84.041         170.118         170.118
  332          83.390          83.390          84.703          84.703         170.269         170.269
  333          83.761          83.761          85.456          85.456         170.444         170.444
  334          84.178          84.178          86.295          86.295         170.643         170.643
  335          84.641          84.641          87.215          87.215         170.868         170.868
  336          85.147          85.147          88.213          88.213         171.117         171.117
  337          85.697          85.697          89.282          89.282         171.393         171.393
  338          86.288          86.288          90.418          90.418         171.695         171.695
  339          86.919          86.919          91.613          91.613         172.024         172.024
  340          87.588          87.588          92.864          92.864         172.381         172.381
  341          88.294          88.294          94.164          94.164         172.766         172.766
  342          89.036          89.036          95.508          95.508         173.181         173.181
  343          89.812          89.812          96.890          96.890         173.625         173.625
  344          90.620          90.620          98.304          98.304         174.101         174.101
  345          91.458          91.458          99.745          99.745         174.608         174.608
  346          92.326          92.326         101.208         101.208         175.147         175.147
  347          93.221          93.221         102.687         102.687         175.720         175.720
  348          94.141          94.141         104.178         104.178         176.327         176.327
  349          95.085          95.085         105.675         105.675         176.969         176.969
  350          96.052          96.052         107.173         107.173         177.647         177.647
  351          97.040          97.040         108.669         108.669         178.362         178.362
  352          98.046          98.046         110.158         110.158         179.114         179.114
  353          99.071          99.071         111.636         111.636         179.904         179.904
  354         100.111         100.111         113.099         113.099         180.732         180.732
  355         101.166         101.166         114.543         114.543         181.598         181.598
  356         102.234         102.234         115.965         115.965         182.504         182.504
  357         103.314         103.314         117.363         117.363         183.449         183.449
  358         104.404         104.404         118.733         118.733         184.433         184.433
  359         105.502         105.502         120.073         120.073         185.455         185.455
  360         106.609         106.609         121.382         121.382         186.516         186.516
  361         107.721         107.721         122.656         122.656         187.614         187.614
  362         108.839         108.839         123.896         123.896         188.749         188.749
  363         109.960         109.960         125.099         125.099         189.919         189.919
  364         111.084         111.084         126.265         126.265         191.123         191.123
  365         112.209         112.209         127.394         127.394         192.360         192.360
  366         113.334         113.334         128.484         128.484         193.628         193.628
  367         114.458         114.458         129.536         129.536         194.925         194.925
  368         115.581         115.581         130.550         130.550         196.249         196.249
  369         116.700         116.700         131.527         131.527         197.597         197.597
  370         117.815         117.815         132.467         132.467         198.969         198.969
  371         118.926         118.926         133.370         133.370         200.360         200.360
  372         120.030         120.030         134.238         134.238         201.770         201.770
  373         121.128         121.128         135.071         135.071         203.194         203.194
  374         122.218         122.218         135.871         135.871         204.632         204.632
  375         123.299         123.299         136.638         136.638         206.080         206.080
  376         124.371         124.371         137.374         137.374         207.536         207.536
  377         125.433         125.433         138.080         138.080         208.997         208.997
  378         126.484         126.484         138.757         138.757         210.461         210.461
  379         127.523         127.523         139.406         139.406         211.925         211.925
  380         128.549         128.549         140.028         140.028         213.388         213.388
  381         129.563         129.563         140.624         140.624         214.846         214.846
  382         130.562         130.562         141.195         141.195         216.298         216.298
  383         131.547         131.547         141.743         141.743         217.742         217.742
  384         132.517         132.517         142.269         142.269         219.175         219.175
  385         133.471         133.471         142.772         142.772         220.596         220.596
  386         134.409         134.409         143.255         143.255         222.002         222.002
  387         135.330         135.330         143.718         143.718         223.392         223.392
  388         136.233         136.233         144.162         144.162         224.765         224.765
  389         137.118         137.118         144.587         144.587         226.117         226.117
  390         137.985         137.985         144.995         144.995         227.448         227.448
  391         138.833         138.833         145.385         145.385         228.757         228.757
  392         139.661         139.661         145.760         145.760         230.041         230.041
  393         140.469         140.469         146.119         146.119         231.300         231.300
  394         141.257         141.257         146.462         146.462         232.532         232.532
  395         142.024         142.024         146.791         146.791         233.736         233.736
  396         142.769         142.769         147.105         147.105         234.910         234.910
  397         143.493         143.493         147.406         147.406         236.054         236.054
  398         144.195         144.195         147.693         147.693         237.167         237.167
  399         144.875         144.875         147.968         147.968         238.247         238.247
  400         145.531         145.531         148.230         148.230         239.293         239.293
  401         146.165         146.165         148.479         148.479         240.305         240.305
  402         146.775         146.775         148.716         148.716         241.282         241.282
  403         147.361         147.361         148.942         148.942         242.223         242.223
  404         147.923         147.923         149.156         149.156         243.127         243.127
  405         148.461         148.461         149.359         149.359         243.994         243.994
  406         148.974         148.974         149.551         149.551         244.822         244.822
  407         149.463         149.463         149.732         149.732         245.611         245.611
  408         149.902         149.902         149.926         149.926         246.361         246.361
  409         150.062         150.062         150.364         150.364         247.071         247.071
  410         150.212         150.212         150.777         150.777         247.741         247.741
  411         150.351         150.351         151.164         151.164         248.369         248.369
  412         150.480         150.480         151.525         151.525         248.956         248.956
  413         150.599         150.599         151.860         151.860         249.501         249.501
  414         150.709         150.709         152.168         152.168         250.004         250.004
  415         150.808         150.808         152.451         152.451         250.465         250.465
  416         150.898         150.898         152.707         152.707         250.882         250.882
  417         150.978         150.978         152.936         152.936         251.256         251.256
  418         151.049         151.049         153.138         153.138         251.587         251.587
  419         151.110         151.110         153.314         153.314         251.874         251.874
  420         151.162         151.162         153.463         153.463         252.118         252.118
  421         151.204         151.204         153.585         153.585         252.317         252.317
  422         151.237         151.237         153.680         153.680         252.472         252.472
  423         151.260         151.260         153.747         153.747         252.583         252.583
  424         151.274         151.274         153.788         153.788         252.649         252.649
  425         151.279         151.279         153.802         153.802         252.672         252.672
  426         150.197         150.197         154.882         154.882         252.669         252.669
  427         148.395         148.395         156.681         156.681         252.660         252.660
  428         146.485         146.485         158.584         158.584         252.645         252.645
  429         144.547         144.547         160.514         160.514         252.624         252.624
  430         142.600         142.600         162.451         162.451         252.598         252.598
  431         140.651         140.651         164.388         164.388         252.565         252.565
  432         138.704         138.704         166.321         166.321         252.527         252.527
  433         136.763         136.763         168.247         168.247         252.482         252.482
  434         134.828         134.828         170.165         170.165         252.431         252.431
  435         132.902         132.902         172.073         172.073         252.375         252.375
  436         130.987         130.987         173.969         173.969         252.312         252.312
  437         129.084         129.084         175.854         175.854         252.243         252.243
  438         127.195         127.195         177.724         177.724         252.167         252.167
  439         125.321         125.321         179.580         179.580         252.085         252.085
  440         123.464         123.464         181.420         181.420         251.997         251.997
  441         121.624         121.624         183.243         183.243         251.902         251.902
  442         119.805         119.805         185.049         185.049         251.801         251.801
  443         118.007         118.007         186.835         186.835         251.694         251.694
  444         116.232         116.232         188.602         188.602         251.579         251.579
  445         114.481         114.481         190.348         190.348         251.458         251.458
  446         112.756         112.756         192.072         192.072         251.330         251.330
  447         111.059         111.059         193.773         193.773         251.196         251.196
  448         109.392         109.392         195.451         195.451         251.055         251.055
  449         107.755         107.755         197.104         197.104         250.907         250.907
  450         106.150         106.150         198.731         198.731         250.752         250.752
  451         104.580         104.580         200.331         200.331         250.590         250.590
  452         103.046         103.046         201.903         201.903         250.422         250.422
  453         101.549         101.549         203.447         203.447         250.247         250.247
  454         100.092         100.092         204.960         204.960         250.065         250.065
  455          98.675          98.675         206.443         206.443         249.877         249.877
  456          97.300          97.300         207.893         207.893         249.683         249.683
  457          95.970          95.970         209.311         209.311         249.483         249.483
  458          94.685          94.685         210.694         210.694         249.277         249.277
  459          93.446          93.446         212.041         212.041         249.065         249.065
  460          92.257          92.257         213.351         213.351         248.849         248.849
  461          91.117          91.117         214.623         214.623         248.629         248.629
  462          90.028          90.028         215.855         215.855         248.404         248.404
  463          88.992          88.992         217.045         217.045         248.177         248.177
  464          88.010          88.010         218.192         218.192         247.947         247.947
  465          87.082          87.082         219.294         219.294         247.716         247.716
  466          86.209          86.209         220.350         220.350         247.485         247.485
  467          85.393          85.393         221.356         221.356         247.255         247.255
  468          84.634          84.634         222.310         222.310         247.028         247.028
  469          83.933          83.933         223.210         223.210         246.806         246.806
  470          83.289          83.289         224.054         224.054         246.591         246.591
  471          82.704          82.704         224.838         224.838         246.384         246.384
  472          82.177          82.177         225.559         225.559         246.188         246.188
  473          81.708          81.708         226.215         226.215         246.006         246.006
  474          81.297          81.297         226.801         226.801         245.840         245.840
  475          80.943          80.943         227.315         227.315         245.693         245.693
  476          80.646          80.646         227.755         227.755         245.566         245.566
  477          80.405          80.405         228.116         228.116         245.461         245.461
  478          80.220          80.220         228.399         228.399         245.380         245.380
  479          80.088          80.088         228.602         228.602         245.323         245.323
  480          80.008          80.008         228.725         228.725         245.290         245.290
  481          79.981          79.981         228.768         228.768         245.278         245.278
  482          80.009          80.009         228.724         228.724         245.289         245.289
  483          80.083          80.083         228.609         228.609         245.315         245.315
  484          80.201          80.201         228.426         228.426         245.353         245.353
  485          80.361          80.361         228.180         228.180         245.399         245.399
  486          80.561          80.561         227.873         227.873         245.448         245.448
  487          80.800          80.800         227.510         227.510         245.497         245.497
  488          81.075          81.075         227.094         227.094         245.542         245.542
  489          81.385          81.385         226.628         226.628         245.579         245.579
  490          81.728          81.728         226.116         226.116         245.604         245.604
  491          82.101          82.101         225.561         225.561         245.615         245.615
  492          82.503          82.503         224.965         224.965         245.608         245.608
  493          82.932          82.932         224.331         224.331         245.581         245.581
  494          83.386          83.386         223.660         223.660         245.532         245.532
  495          83.862          83.862         222.955         222.955         245.458         245.458
  496          84.360          84.360         222.217         222.217         245.359         245.359
  497          84.876          84.876         221.447         221.447         245.232         245.232
  498          85.410          85.410         220.647         220.647         245.077         245.077
  499          85.959          85.959         219.817         219.817         244.892         244.892
  500          86.522          86.522         218.959         218.959         244.677         244.677
  501          87.097          87.097         218.073         218.073         244.430         244.430
  502          87.682          87.682         217.161         217.161         244.151         244.151
  503          88.275          88.275         216.222         216.222         243.839         243.839
  504          88.876          88.876         215.257         215.257         243.495         243.495
  505          89.481          89.481         214.267         214.267         243.117         243.117
  506          90.091          90.091         213.253         213.253         242.706         242.706
  507          90.703          90.703         212.214         212.214         242.261         242.261
  508          91.317          91.317         211.150         211.150         241.783         241.783
  509          91.930          91.930         210.064         210.064         241.270         241.270
  510          92.541          92.541         208.953         208.953         240.724         240.724
  511          93.150          93.150         207.820         207.820         240.145         240.145
  512          93.754          93.754         206.663         206.663         239.532         239.532
  513          94.354          94.354         205.484         205.484         238.886         238.886
  514          94.947          94.947         204.283         204.283         238.207         238.207
  515          95.532          95.532         203.059         203.059         237.495         237.495
  516          96.109          96.109         201.814         201.814         236.751         236.751
  517          96.677          96.677         200.546         200.546         235.976         235.976
  518          97.234          97.234         199.257         199.257         235.169         235.169
  519          97.780          97.780         197.947         197.947         234.332         234.332
  520          98.313          98.313         196.616         196.616         233.465         233.465
  521          98.833          98.833         195.264         195.264         232.568         232.568
  522          99.339          99.339         193.891         193.891         231.643         231.643
  523          99.830          99.830         192.498         192.498         230.689         230.689
  524         100.305         100.305         191.084         191.084         229.708         229.708
  525         100.763         100.763         189.651         189.651         228.701         228.701
  526         101.204         101.204         188.198         188.198         227.669         227.669
  527         101.627         101.627         186.725         186.725         226.612         226.612
  528         102.031         102.031         185.233         185.233         225.531         225.531
  529         102.415         102.415         183.722         183.722         224.428         224.428
  530         102.779         102.779         182.193         182.193         223.303         223.303
  531         103.122         103.122         180.644         180.644         222.158         222.158
  532         103.442         103.442         179.078         179.078         220.994         220.994
  533         103.741         103.741         177.494         177.494         219.812         219.812
  534         104.016         104.016         175.892         175.892         218.614         218.614
  535         104.267         104.267         174.273         174.273         217.401         217.401
  536         104.494         104.494         172.636         172.636         216.173         216.173
  537         104.695         104.695         170.984         170.984         214.934         214.934
  538         104.870         104.870         169.314         169.314         213.684         213.684
  539         105.019         105.019         167.629         167.629         212.425         212.425
  540         105.141         105.141         165.929         165.929         211.159         211.159
  541         105.235         105.235         164.213         164.213         209.886         209.886
  542         105.300         105.300         162.482         162.482         208.610         208.610
  543         105.337         105.337         160.737         160.737         207.331         207.331
  544         105.344         105.344         158.979         158.979         206.052         206.052
  545         105.321         105.321         157.206         157.206         204.774         204.774
  546         105.268         105.268         155.421         155.421         203.500         203.500
  547         105.184         105.184         153.624         153.624         202.230         202.230
  548         105.068         105.068         151.815         151.815         200.967         200.967
  549         104.921         104.921         149.994         149.994         199.714         199.714
  550         104.742         104.742         148.164         148.164         198.470         198.470
  551         104.531         104.531         146.323         146.323         197.240         197.240
  552         104.287         104.287         144.473         144.473         196.024         196.024
  553         104.012         104.012         142.615         142.615         194.824         194.824
  554         103.704         103.704         140.749         140.749         193.642         193.642
  555         103.364         103.364         138.877         138.877         192.480         192.480
  556         102.993         102.993         136.999         136.999         191.339         191.339
  557         102.590         102.590         135.116         135.116         190.222         190.222
  558         102.157         102.157         133.230         133.230         189.128         189.128
  559         101.693         101.693         131.342         131.342         188.061         188.061
  560         101.201         101.201         129.453         129.453         187.020         187.020
  561         100.681         100.681         127.564         127.564         186.008         186.008
  562         100.133         100.133         125.677         125.677         185.025         185.025
  563          99.560          99.560         123.794         123.794         184.072         184.072
  564          98.964          98.964         121.916         121.916         183.150         183.150
  565          98.345          98.345         120.045         120.045         182.259         182.259
  566          97.705          97.705         118.184         118.184         181.401         181.401
  567          97.047          97.047         116.334         116.334         180.575         180.575
  568          96.373          96.373         114.497         114.497         179.782         179.782
  569          95.685          95.685         112.676         112.676         179.022         179.022
  570          94.986          94.986         110.874         110.874         178.294         178.294
  571          94.278          94.278         109.094         109.094         177.600         177.600
  572          93.564          93.564         107.338         107.338         176.938         176.938
  573          92.847          92.847         105.609         105.609         176.309         176.309
  574          92.129          92.129         103.911         103.911         175.712         175.712
  575          91.414          91.414         102.247         102.247         175.146         175.146
  576          90.704          90.704         100.620         100.620         174.612         174.612
  577          90.004          90.004          99.035          99.035         174.109         174.109
  578          89.315          89.315          97.495          97.495         173.636         173.636
  579          88.641          88.641          96.004          96.004         173.193         173.193
  580          87.985          87.985          94.566          94.566         172.779         172.779
  581          87.351          87.351          93.186          93.186         172.393         172.393
  582          86.741          86.741          91.868          91.868         172.035         172.035
  583          86.158          86.158          90.616          90.616         171.705         171.705
  584          85.605          85.605          89.434          89.434         171.402         171.402
  585          85.085          85.085          88.327          88.327         171.125         171.125
  586          84.601          84.601          87.300          87.300         170.875         170.875
  587          84.154          84.154          86.355          86.355         170.649         170.649
  588          83.748          83.748          85.498          85.498         170.448         170.448
  589          83.384          83.384          84.732          84.732         170.272         170.272
  590          83.065          83.065          84.060          84.060         170.121         170.121
  591          82.792          82.792          83.486          83.486         169.993         169.993
  592          82.566          82.566          83.012          83.012         169.889         169.889
  593          82.390          82.390          82.641          82.641         169.808         169.808
  594          82.263          82.263          82.375          82.375         169.750         169.750
  595          82.186          82.186          82.214          82.214         169.716         169.716
  596          82.161          82.161          82.161          82.161         169.704         169.704
