# Phonon frequencies in cm-1
    1           0.000           0.000           0.000          99.027         105.014         108.396
    2           2.215           2.406           3.320          99.021         104.980         108.395
    3           4.427           4.811           6.634          99.003         104.877         108.394
    4           6.632           7.211           9.937          98.974         104.706         108.391
    5           8.829           9.606          13.224          98.933         104.466         108.386
    6          11.013          11.992          16.487          98.881         104.158         108.381
    7          13.183          14.368          19.723          98.817         103.783         108.374
    8          15.334          16.732          22.925          98.742         103.341         108.364
    9          17.464          19.082          26.088          98.656         102.832         108.353
   10          19.571          21.416          29.207          98.558         102.256         108.340
   11          21.651          23.732          32.277          98.449         101.616         108.324
   12          23.702          26.028          35.292          98.330         100.910         108.305
   13          25.721          28.302          38.246          98.199         100.141         108.284
   14          27.707          30.552          41.136          98.058          99.309         108.259
   15          29.655          32.777          43.956          97.907          98.416         108.231
   16          31.565          34.973          46.702          97.463          97.746         108.199
   17          33.434          37.141          49.369          96.451          97.575         108.164
   18          35.259          39.276          51.951          95.382          97.395         108.126
   19          37.040          41.378          54.446          94.258          97.205         108.085
   20          38.774          43.443          56.848          93.082          97.007         108.041
   21          40.460          45.471          59.153          91.855          96.800         107.995
   22          42.097          47.459          61.357          90.581          96.584         107.947
   23          43.682          49.403          63.457          89.264          96.361         107.898
   24          45.215          51.300          65.449          87.907          96.131         107.849
   25          46.696          53.148          67.328          86.516          95.893         107.802
   26          48.122          54.940          69.092          85.097          95.649         107.756
   27          49.494          56.671          70.738          83.659          95.399         107.714
   28          50.811          58.330          72.262          82.214          95.144         107.677
   29          52.073          59.905          73.663          80.777          94.883         107.647
   30          53.280          61.374          74.938          79.373          94.618         107.624
   31          54.431          62.701          76.086          78.042          94.349         107.611
   32          55.528          63.827          76.846          77.107          94.076         107.607
   33          56.571          64.658          75.883          78.000          93.801         107.613
   34          57.561          65.068          75.285          78.766          93.524         107.631
   35          58.498          64.960          75.155          79.408          93.245         107.658
   36          59.383          64.351          75.481          79.929          92.966         107.695
   37          60.218          63.367          76.143          80.331          92.686         107.739
   38          61.005          62.149          77.010          80.621          92.406         107.790
   39          60.798          61.744          77.986          80.804          92.128         107.844
   40          59.382          62.438          79.014          80.886          91.852         107.900
   41          57.942          63.090          80.060          80.875          91.578         107.955
   42          56.511          63.699          80.778          81.105          91.307         108.006
   43          55.111          64.271          80.602          82.136          91.040         108.051
   44          53.762          64.806          80.355          83.145          90.778         108.087
   45          52.480          65.307          80.047          84.128          90.520         108.114
   46          51.282          65.777          79.684          85.081          90.269         108.129
   47          50.183          66.219          79.275          86.003          90.024         108.132
   48          49.197          66.635          78.828          86.893          89.786         108.122
   49          48.338          67.029          78.351          87.750          89.555         108.100
   50          47.616          67.403          77.852          88.574          89.333         108.065
   51          47.044          67.761          77.339          89.120          89.365         108.018
   52          46.631          68.105          76.820          88.915          90.124         107.960
   53          46.382          68.439          76.302          88.721          90.852         107.893
   54          46.302          68.765          75.795          88.536          91.548         107.816
   55          46.394          69.087          75.304          88.362          92.215         107.733
   56          46.655          69.406          74.838          88.199          92.853         107.644
   57          47.083          69.726          74.405          88.047          93.463         107.551
   58          47.672          70.049          74.011          87.906          94.046         107.456
   59          48.413          70.377          73.663          87.777          94.604         107.360
   60          49.296          70.713          73.367          87.659          95.137         107.265
   61          50.311          71.058          73.130          87.553          95.646         107.172
   62          51.445          71.415          72.956          87.458          96.133         107.083
   63          52.686          71.783          72.851          87.376          96.599         107.000
   64          54.023          72.166          72.817          87.305          97.045         106.922
   65          55.441          72.563          72.858          87.245          97.471         106.853
   66          56.931          72.975          72.976          87.196          97.879         106.791
   67          58.479          73.172          73.403          87.159          98.270         106.739
   68          60.075          73.445          73.846          87.132          98.645         106.696
   69          61.710          73.797          74.304          87.115          99.003         106.664
   70          63.372          74.223          74.777          87.109          99.347         106.643
   71          65.054          74.723          75.265          87.111          99.676         106.632
   72          66.747          75.292          75.765          87.123          99.991         106.631
   73          68.443          75.926          76.277          87.143         100.292         106.642
   74          70.136          76.620          76.799          87.171         100.580         106.662
   75          71.818          77.330          77.369          87.206         100.854         106.692
   76          73.484          77.867          78.166          87.247         101.116         106.732
   77          75.129          78.410          79.005          87.295         101.364         106.780
   78          76.747          78.955          79.880          87.347         101.599         106.836
   79          78.333          79.500          80.783          87.405         101.821         106.899
   80          79.884          80.043          81.708          87.466         102.029         106.968
   81          80.583          81.395          82.647          87.530         102.222         107.042
   82          81.115          82.864          83.593          87.596         102.400         107.120
   83          81.638          84.286          84.539          87.664         102.563         107.201
   84          82.149          85.479          85.659          87.734         102.710         107.284
   85          82.646          86.405          86.981          87.803         102.839         107.367
   86          83.127          87.311          87.872          88.249         102.950         107.450
   87          83.589          87.940          88.191          89.461         103.042         107.532
   88          84.030          88.007          89.039          90.616         103.114         107.611
   89          84.447          88.071          89.850          91.711         103.165         107.687
   90          84.839          88.132          90.617          92.745         103.195         107.759
   91          85.204          88.190          91.336          93.718         103.201         107.826
   92          85.540          88.244          92.002          94.627         103.184         107.888
   93          85.845          88.294          92.611          95.471         103.143         107.943
   94          86.118          88.339          93.159          96.247         103.078         107.992
   95          86.358          88.378          93.641          96.954         102.992         108.035
   96          86.562          88.412          94.055          97.587         102.886         108.071
   97          86.731          88.441          94.398          98.139         102.767         108.101
   98          86.863          88.463          94.668          98.601         102.643         108.123
   99          86.958          88.479          94.862          98.955         102.530         108.140
  100          87.015          88.489          94.979          99.182         102.448         108.149
  101          87.034          88.492          95.018          99.261         102.418         108.152
  102          86.714          88.773          94.738          99.485         102.352         108.163
  103          86.055          89.311          94.024         100.035         102.156         108.194
  104          85.276          89.889          93.058         100.726         101.835         108.239
  105          84.427          90.457          91.943         101.397         101.458         108.293
  106          83.522          90.723          91.002         100.848         102.186         108.348
  107          82.562          89.422          91.521         100.194         102.887         108.399
  108          81.551          88.050          92.014          99.442         103.553         108.442
  109          80.488          86.614          92.480          98.593         104.178         108.474
  110          79.372          85.118          92.920          97.651         104.758         108.495
  111          78.203          83.564          93.335          96.617         105.293         108.504
  112          76.981          81.955          93.728          95.492         105.782         108.502
  113          75.706          80.294          94.098          94.277         106.225         108.489
  114          74.376          78.581          92.972          94.447         106.623         108.466
  115          72.993          76.819          91.578          94.776         106.975         108.436
  116          71.555          75.009          90.094          95.086         107.283         108.399
  117          70.063          73.153          88.520          95.379         107.547         108.358
  118          68.517          71.252          86.858          95.654         107.770         108.313
  119          66.917          69.308          85.107          95.914         107.951         108.268
  120          65.264          67.323          83.267          96.159         108.094         108.222
  121          63.559          65.299          81.341          96.390         108.177         108.198
  122          61.801          63.237          79.327          96.607         108.135         108.266
  123          59.993          61.140          77.228          96.811         108.097         108.300
  124          58.134          59.009          75.045          97.003         108.063         108.301
  125          56.226          56.847          72.778          97.184         108.034         108.273
  126          54.270          54.654          70.430          97.353         108.011         108.215
  127          52.268          52.434          68.002          97.512         107.994         108.132
  128          50.188          50.221          65.496          97.661         107.983         108.026
  129          47.919          48.130          62.914          97.801         107.898         107.978
  130          45.627          45.996          60.258          97.931         107.752         107.980
  131          43.316          43.822          57.532          98.052         107.590         107.987
  132          40.986          41.610          54.737          98.165         107.415         108.000
  133          38.640          39.360          51.876          98.270         107.229         108.017
  134          36.280          37.075          48.953          98.367         107.036         108.039
  135          33.906          34.757          45.970          98.456         106.839         108.065
  136          31.521          32.408          42.930          98.538         106.639         108.094
  137          29.126          30.030          39.838          98.613         106.441         108.125
  138          26.723          27.624          36.697          98.681         106.246         108.157
  139          24.312          25.194          33.509          98.743         106.058         108.190
  140          21.896          22.740          30.280          98.798         105.878         108.223
  141          19.474          20.266          27.013          98.847         105.711         108.255
  142          17.047          17.773          23.712          98.889         105.557         108.285
  143          14.618          15.265          20.381          98.926         105.419         108.312
  144          12.185          12.742          17.024          98.957         105.299         108.336
  145           9.750          10.207          13.645          98.982         105.198         108.357
  146           7.314           7.664          10.249          99.002         105.118         108.374
  147           4.877           5.113           6.840          99.016         105.061         108.386
  148           2.439           2.558           3.422          99.024         105.026         108.393
  149           0.000           0.000           0.000          99.027         105.014         108.396
  150           2.279           2.597           4.144          99.036         104.956         108.342
  151           4.560           5.194           8.280          99.062         104.783         108.180
  152           6.844           7.791          12.399          99.105         104.494         107.910
  153           9.133          10.389          16.491          99.161         104.091         107.534
  154          11.430          12.988          20.549          99.227         103.574         107.051
  155          13.734          15.587          24.565          99.300         102.945         106.463
  156          16.049          18.187          28.530          99.374         102.206         105.771
  157          18.374          20.788          32.435          99.444         101.358         104.976
  158          20.710          23.388          36.275          99.503         100.403         104.081
  159          23.059          25.989          40.040          99.345          99.546         103.088
  160          25.420          28.588          43.723          98.184          99.564         101.997
  161          27.794          31.186          47.319          96.925          99.550         100.812
  162          30.180          33.781          50.819          95.571          99.497          99.536
  163          32.578          36.373          54.218          94.124          98.170          99.397
  164          34.987          38.960          57.510          92.588          96.719          99.243
  165          37.406          41.540          60.689          90.967          95.184          99.025
  166          39.833          44.112          63.750          89.265          93.570          98.737
  167          42.267          46.674          66.687          87.485          91.881          98.371
  168          44.705          49.225          69.495          85.633          90.122          97.921
  169          47.145          51.761          72.167          83.711          88.299          97.378
  170          49.585          54.280          74.692          81.725          86.425          96.737
  171          52.022          56.780          77.039          79.678          84.529          95.991
  172          54.452          59.258          77.575          79.056          82.769          95.136
  173          56.873          61.711          75.422          79.464          82.423          94.166
  174          59.280          64.136          73.221          77.758          84.000          93.077
  175          61.670          66.528          70.978          75.665          85.776          91.865
  176          64.039          68.697          68.884          73.464          87.478          90.528
  177          66.382          66.382          71.199          71.199          89.065          89.065
