# Phonon frequencies in cm-1
    1           0.000           0.000           0.000          99.027         105.014         108.396
    2           2.215           2.406           3.320          99.021         104.980         108.395
    3           4.427           4.811           6.634          99.003         104.877         108.394
    4           6.632           7.211           9.937          98.974         104.706         108.391
    5           8.829           9.606          13.224          98.933         104.466         108.386
    6          11.013          11.992          16.487          98.881         104.158         108.381
    7          13.183          14.368          19.723          98.817         103.783         108.374
    8          15.334          16.732          22.925          98.742         103.341         108.364
    9          17.464          19.082          26.088          98.656         102.832         108.353
   10          19.571          21.416          29.207          98.558         102.256         108.340
   11          21.651          23.732          32.277          98.449         101.616         108.324
   12          23.702          26.028          35.292          98.330         100.910         108.305
   13          25.721          28.302          38.246          98.199         100.141         108.284
   14          27.707          30.552          41.136          98.058          99.309         108.259
   15          29.655          32.777          43.956          97.907          98.416         108.231
   16          31.565          34.973          46.702          97.463          97.746         108.199
   17          33.434          37.141          49.369          96.451          97.575         108.164
   18          35.259          39.276          51.951          95.382          97.395         108.126
   19          37.040          41.378          54.446          94.258          97.205         108.085
   20          38.774          43.443          56.848          93.082          97.007         108.041
   21          40.460          45.471          59.153          91.855          96.800         107.995
   22          42.097          47.459          61.357          90.581          96.584         107.947
   23          43.682          49.403          63.457          89.264          96.361         107.898
   24          45.215          51.300          65.449          87.907          96.131         107.849
   25          46.696          53.148          67.328          86.516          95.893         107.802
   26          48.122          54.940          69.092          85.097          95.649         107.756
   27          49.494          56.671          70.738          83.659          95.399         107.714
   28          50.811          58.330          72.262          82.214          95.144         107.677
   29          52.073          59.905          73.663          80.777          94.883         107.647
   30          53.280          61.374          74.938          79.373          94.618         107.624
   31          54.431          62.701          76.086          78.042          94.349         107.611
   32          55.528          63.827          76.846          77.107          94.076         107.607
   33          56.571          64.658          75.883          78.000          93.801         107.613
   34          57.561          65.068          75.285          78.766          93.524         107.631
   35          58.498          64.960          75.155          79.408          93.245         107.658
   36          59.383          64.351          75.481          79.929          92.966         107.695
   37          60.218          63.367          76.143          80.331          92.686         107.739
   38          61.005          62.149          77.010          80.621          92.406         107.790
   39          60.798          61.744          77.986          80.804          92.128         107.844
   40          59.382          62.438          79.014          80.886          91.852         107.900
   41          57.942          63.090          80.060          80.875          91.578         107.955
   42          56.511          63.699          80.778          81.105          91.307         108.006
   43          55.111          64.271          80.602          82.136          91.040         108.051
   44          53.762          64.806          80.355          83.145          90.778         108.087
   45          52.480          65.307          80.047          84.128          90.520         108.114
   46          51.282          65.777          79.684          85.081          90.269         108.129
   47          50.183          66.219          79.275          86.003          90.024         108.132
   48          49.197          66.635          78.828          86.893          89.786         108.122
   49          48.338          67.029          78.351          87.750          89.555         108.100
   50          47.616          67.403          77.852          88.574          89.333         108.065
   51          47.044          67.761          77.339          89.120          89.365         108.018
   52          46.631          68.105          76.820          88.915          90.124         107.960
   53          46.382          68.439          76.302          88.721          90.852         107.893
   54          46.302          68.765          75.795          88.536          91.548         107.816
   55          46.394          69.087          75.304          88.362          92.215         107.733
   56          46.655          69.406          74.838          88.199          92.853         107.644
   57          47.083          69.726          74.405          88.047          93.463         107.551
   58          47.672          70.049          74.011          87.906          94.046         107.456
   59          48.413          70.377          73.663          87.777          94.604         107.360
   60          49.296          70.713          73.367          87.659          95.137         107.265
   61          50.311          71.058          73.130          87.553          95.646         107.172
   62          51.445          71.415          72.956          87.458          96.133         107.083
   63          52.686          71.783          72.851          87.376          96.599         107.000
   64          54.023          72.166          72.817          87.305          97.045         106.922
   65          55.441          72.563          72.858          87.245          97.471         106.853
   66          56.931          72.975          72.976          87.196          97.879         106.791
   67          58.479          73.172          73.403          87.159          98.270         106.739
   68          60.075          73.445          73.846          87.132          98.645         106.696
   69          61.710          73.797          74.304          87.115          99.003         106.664
   70          63.372          74.223          74.777          87.109          99.347         106.643
   71          65.054          74.723          75.265          87.111          99.676         106.632
   72          66.747          75.292          75.765          87.123          99.991         106.631
   73          68.443          75.926          76.277          87.143         100.292         106.642
   74          70.136          76.620          76.799          87.171         100.580         106.662
   75          71.818          77.330          77.369          87.206         100.854         106.692
   76          73.484          77.867          78.166          87.247         101.116         106.732
   77          75.129          78.410          79.005          87.295         101.364         106.780
   78          76.747          78.955          79.880          87.347         101.599         106.836
   79          78.333          79.500          80.783          87.405         101.821         106.899
   80          79.884          80.043          81.708          87.466         102.029         106.968
   81          80.583          81.395          82.647          87.530         102.222         107.042
   82          81.115          82.864          83.593          87.596         102.400         107.120
   83          81.638          84.286          84.539          87.664         102.563         107.201
   84          82.149          85.479          85.659          87.734         102.710         107.284
   85          82.646          86.405          86.981          87.803         102.839         107.367
   86          83.127          87.311          87.872          88.249         102.950         107.450
   87          83.589          87.940          88.191          89.461         103.042         107.532
   88          84.030          88.007          89.039          90.616         103.114         107.611
   89          84.447          88.071          89.850          91.711         103.165         107.687
   90          84.839          88.132          90.617          92.745         103.195         107.759
   91          85.204          88.190          91.336          93.718         103.201         107.826
   92          85.540          88.244          92.002          94.627         103.184         107.888
   93          85.845          88.294          92.611          95.471         103.143         107.943
   94          86.118          88.339          93.159          96.247         103.078         107.992
   95          86.358          88.378          93.641          96.954         102.992         108.035
   96          86.562          88.412          94.055          97.587         102.886         108.071
   97          86.731          88.441          94.398          98.139         102.767         108.101
   98          86.863          88.463          94.668          98.601         102.643         108.123
   99          86.958          88.479          94.862          98.955         102.530         108.140
  100          87.015          88.489          94.979          99.182         102.448         108.149
  101          87.034          88.492          95.018          99.261         102.418         108.152
  102          86.725          88.763          94.749          99.477         102.355         108.163
  103          86.084          89.288          94.059         100.009         102.166         108.192
  104          85.326          89.853          93.122         100.682         101.858         108.236
  105          84.499          90.411          92.038         101.398         101.437         108.288
  106          83.616          90.852          90.948         100.909         102.112         108.342
  107          82.683          89.586          91.459         100.280         102.803         108.393
  108          81.699          88.250          91.945          99.555         103.460         108.436
  109          80.665          86.853          92.405          98.738         104.079         108.470
  110          79.581          85.397          92.841          97.831         104.655         108.492
  111          78.446          83.886          93.253          96.836         105.188         108.503
  112          77.260          82.321          93.642          95.753         105.677         108.503
  113          76.023          80.706          94.009          94.583         106.121         108.493
  114          74.734          79.041          93.327          94.356         106.522         108.473
  115          73.394          77.328          91.985          94.684         106.879         108.445
  116          72.001          75.568          90.557          94.993         107.193         108.411
  117          70.556          73.764          89.044          95.285         107.466         108.372
  118          69.059          71.916          87.445          95.561         107.697         108.329
  119          67.511          70.027          85.760          95.821         107.889         108.284
  120          65.912          68.098          83.991          96.066         108.043         108.239
  121          64.261          66.130          82.138          96.297         108.160         108.195
  122          62.561          64.125          80.201          96.515         108.153         108.241
  123          60.811          62.086          78.181          96.721         108.114         108.289
  124          59.013          60.014          76.080          96.914         108.078         108.305
  125          57.167          57.910          73.899          97.097         108.048         108.290
  126          55.274          55.776          71.638          97.268         108.022         108.248
  127          53.336          53.616          69.300          97.429         108.002         108.180
  128          51.355          51.429          66.886          97.580         107.988         108.087
  129          49.218          49.330          64.398          97.722         107.974         107.980
  130          46.986          47.264          61.839          97.855         107.841         107.978
  131          44.733          45.158          59.209          97.979         107.691         107.982
  132          42.462          43.014          56.513          98.095         107.527         107.991
  133          40.174          40.833          53.751          98.202         107.352         108.005
  134          37.871          38.618          50.928          98.302         107.167         108.024
  135          35.554          36.369          48.046          98.395         106.976         108.047
  136          33.226          34.089          45.107          98.480         106.782         108.073
  137          30.887          31.780          42.115          98.559         106.586         108.102
  138          28.539          29.443          39.073          98.630         106.393         108.133
  139          26.183          27.081          35.985          98.696         106.203         108.165
  140          23.820          24.695          32.854          98.755         106.020         108.197
  141          21.451          22.287          29.683          98.807         105.847         108.229
  142          19.078          19.860          26.476          98.854         105.685         108.260
  143          16.700          17.416          23.238          98.895         105.536         108.289
  144          14.320          14.956          19.971          98.930         105.403         108.315
  145          11.937          12.484          16.680          98.960         105.288         108.339
  146           9.552          10.000          13.368          98.984         105.191         108.359
  147           7.165           7.508          10.041          99.003         105.114         108.375
  148           4.777           5.009           6.701          99.016         105.059         108.386
  149           2.389           2.506           3.352          99.024         105.025         108.393
  150           0.000           0.000           0.000          99.027         105.014         108.396
  151           2.200           2.507           4.002          99.035         104.960         108.345
  152           4.402           5.015           7.995          99.060         104.798         108.194
  153           6.607           7.522          11.974          99.099         104.529         107.943
  154           8.817          10.031          15.928          99.152         104.153         107.592
  155          11.033          12.540          19.852          99.215         103.671         107.141
  156          13.257          15.049          23.738          99.284         103.084         106.593
  157          15.489          17.559          27.578          99.356         102.394         105.947
  158          17.731          20.070          31.364          99.425         101.603         105.206
  159          19.984          22.581          35.091          99.486         100.711         104.370
  160          22.248          25.092          38.750          99.533          99.721         103.441
  161          24.523          27.602          42.336          98.636          99.560         102.422
  162          26.810          30.111          45.842          97.458          99.560         101.314
  163          29.109          32.618          49.262          96.189          99.526         100.119
  164          31.419          35.122          52.590          94.833          98.840          99.452
  165          33.740          37.622          55.821          93.393          97.480          99.330
  166          36.070          40.117          58.949          91.872          96.041          99.153
  167          38.409          42.605          61.970          90.272          94.526          98.915
  168          40.755          45.085          64.879          88.599          92.938          98.608
  169          43.107          47.555          67.670          86.854          91.282          98.226
  170          45.462          50.013          70.339          85.043          89.563          97.762
  171          47.818          52.457          72.879          83.169          87.786          97.211
  172          50.174          54.885          75.277          81.236          85.967          96.567
  173          52.525          57.295          77.495          79.247          84.142          95.824
  174          54.870          59.683          77.208          79.319          82.530          94.977
  175          57.205          62.048          75.121          79.291          82.589          94.023
  176          59.528          64.385          72.991          77.550          84.184          92.957
  177          61.834          66.692          70.822          75.516          85.897          91.777
  178          64.120          68.618          68.965          73.387          87.535          90.480
  179          66.382          66.382          71.199          71.199          89.065          89.065
