# Phonon frequencies in cm-1
    1           0.000           0.000           0.000          79.097         100.606         105.421
    2           2.187           2.578           4.553          79.162         100.620         105.418
    3           4.371           5.149           9.092          79.356         100.661         105.410
    4           6.552           7.706          13.602          79.672         100.728         105.397
    5           8.727          10.243          18.067          80.105         100.820         105.380
    6          10.893          12.752          22.476          80.643         100.934         105.357
    7          13.050          15.227          26.812          81.273         101.068         105.330
    8          15.194          17.661          31.063          81.981         101.218         105.299
    9          17.324          20.049          35.215          82.750         101.380         105.264
   10          19.438          22.384          39.256          83.563         101.551         105.226
   11          21.534          24.661          43.172          84.401         101.726         105.184
   12          23.610          26.874          46.953          85.247         101.900         105.141
   13          25.664          29.019          50.587          86.082         102.068         105.096
   14          27.694          31.090          54.064          86.889         102.227         105.050
   15          29.700          33.084          57.374          87.651         102.369         105.004
   16          31.678          34.996          60.507          88.351         102.492         104.958
   17          33.628          36.824          63.455          88.974         102.589         104.914
   18          35.548          38.564          66.212          89.507         102.657         104.873
   19          37.437          40.214          68.770          89.935         102.692         104.835
   20          39.294          41.773          71.124          90.249         102.689         104.801
   21          41.118          43.239          73.268          90.438         102.646         104.774
   22          42.907          44.611          75.201          90.494         102.558         104.753
   23          44.662          45.890          76.917          90.409         102.424         104.742
   24          46.381          47.075          78.417          90.179         102.241         104.739
   25          48.064          48.169          79.700          89.799         102.009         104.748
   26          49.173          49.710          80.767          89.269         101.725         104.770
   27          50.090          51.318          81.619          88.587         101.390         104.804
   28          50.922          52.887          82.262          87.755         101.004         104.852
   29          51.674          54.418          82.701          86.777         100.568         104.915
   30          52.350          55.907          82.941          85.660         100.083         104.992
   31          52.954          57.354          82.993          84.411          99.551         105.084
   32          53.494          58.754          82.866          83.043          98.976         105.190
   33          53.974          60.104          81.571          82.573          98.360         105.310
   34          54.401          61.393          80.017          82.125          97.708         105.443
   35          54.784          62.605          78.413          81.537          97.023         105.589
   36          55.128          63.709          76.806          80.827          96.310         105.747
   37          55.444          64.645          75.277          80.010          95.576         105.916
   38          55.737          65.289          73.971          79.105          94.826         106.097
   39          56.018          65.440          73.114          78.133          94.066         106.288
   40          56.294          64.935          72.896          77.113          93.303         106.489
   41          56.574          63.869          73.251          76.070          92.543         106.700
   42          56.865          62.497          73.957          75.024          91.793         106.920
   43          57.175          61.022          74.001          74.843          91.061         107.148
   44          57.512          59.568          73.024          75.822          90.352         107.384
   45          57.882          58.213          72.117          76.849          89.675         107.626
   46          57.013          58.291          71.304          77.904          89.035         107.874
   47          56.014          58.743          70.605          78.974          88.438         108.126
   48          55.248          59.242          70.041          80.054          87.890         108.382
   49          54.742          59.792          69.628          81.142          87.397         108.640
   50          54.511          60.393          69.381          82.235          86.962         108.898
   51          54.561          61.047          69.310          83.335          86.590         109.156
   52          54.889          61.752          69.418          84.441          86.283         109.411
   53          55.483          62.507          69.709          85.556          86.043         109.662
   54          56.321          63.310          70.176          85.871          86.680         109.909
   55          57.377          64.157          70.813          85.767          87.815         110.148
   56          58.619          65.043          71.607          85.730          88.962         110.379
   57          60.012          65.964          72.543          85.758          90.122         110.599
   58          61.522          66.915          73.603          85.849          91.297         110.808
   59          63.115          67.888          74.768          85.999          92.484         111.004
   60          64.758          68.878          76.015          86.203          93.684         111.185
   61          66.421          69.878          77.324          86.458          94.894         111.350
   62          68.080          70.882          78.673          86.758          96.111         111.496
   63          69.712          71.884          80.040          87.096          97.329         111.623
   64          71.298          72.876          81.405          87.467          98.541         111.729
   65          72.825          73.852          82.750          87.865          99.739         111.813
   66          74.283          74.807          84.056          88.284         100.913         111.872
   67          75.663          75.735          85.307          88.716         102.053         111.906
   68          76.631          76.961          86.489          89.157         103.147         111.912
   69          77.491          78.176          87.589          89.601         104.184         111.888
   70          78.308          79.307          88.596          90.041         105.151         111.835
   71          79.081          80.355          89.500          90.473         106.039         111.749
   72          79.806          81.322          90.294          90.892         106.838         111.630
   73          80.480          82.209          90.973          91.293         107.539         111.476
   74          81.102          83.018          91.530          91.674         108.136         111.287
   75          81.669          83.752          91.963          92.030         108.624         111.064
   76          82.181          84.413          92.269          92.359         109.000         110.806
   77          82.637          85.000          92.448          92.660         109.264         110.516
   78          83.038          85.516          92.498          92.929         109.418         110.196
   79          83.384          85.960          92.420          93.168         109.465         109.849
   80          83.677          86.331          92.215          93.374         109.410         109.480
   81          83.919          86.630          91.885          93.548         109.093         109.262
   82          84.112          86.853          91.435          93.691         108.696         109.031
   83          84.259          87.001          90.869          93.804         108.291         108.729
   84          84.363          87.070          90.194          93.887         107.887         108.368
   85          84.427          87.060          89.420          93.944         107.487         107.963
   86          84.456          86.970          88.557          93.977         107.096         107.530
   87          84.454          86.800          87.619          93.987         106.718         107.082
   88          84.424          86.554          86.620          93.978         106.355         106.634
   89          84.373          85.579          86.237          93.952         106.012         106.199
   90          84.303          84.514          85.856          93.914         105.690         105.787
   91          83.443          84.221          85.423          93.865         105.391         105.407
   92          82.389          84.130          84.952          93.809         105.063         105.115
   93          81.372          84.034          84.460          93.749         104.760         104.866
   94          80.413          83.939          83.964          93.688         104.498         104.643
   95          79.533          83.485          83.848          93.630         104.276         104.447
   96          78.751          83.041          83.765          93.575         104.093         104.280
   97          78.084          82.650          83.692          93.527         103.948         104.143
   98          77.547          82.328          83.632          93.488         103.837         104.035
   99          77.155          82.088          83.588          93.459         103.760         103.958
  100          76.916          81.940          83.561          93.441         103.714         103.911
  101          76.835          81.890          83.552          93.435         103.699         103.895
  102          76.729          81.948          83.502          93.447         103.566         103.975
  103          76.425          82.107          83.354          93.484         103.312         104.066
  104          75.955          82.337          83.109          93.542         102.987         104.121
  105          75.351          82.605          82.770          93.621         102.592         104.139
  106          74.641          82.340          82.884          93.717         102.124         104.124
  107          73.841          81.821          83.158          93.827         101.578         104.080
  108          72.965          81.217          83.416          93.950         100.952         104.012
  109          72.018          80.531          83.651          94.081         100.243         103.924
  110          71.007          79.765          83.858          94.221          99.447         103.821
  111          69.936          78.921          84.037          94.366          98.562         103.707
  112          68.807          78.000          84.184          94.517          97.586         103.586
  113          67.622          77.003          84.300          94.673          96.517         103.461
  114          66.383          75.931          84.384          94.834          95.352         103.337
  115          65.092          74.785          84.438          94.090          94.999         103.217
  116          63.750          73.565          84.461          92.730          95.169         103.104
  117          62.359          72.273          84.455          91.270          95.343         103.000
  118          60.918          70.908          84.421          89.711          95.522         102.908
  119          59.431          69.472          84.360          88.051          95.705         102.830
  120          57.897          67.963          84.273          86.291          95.894         102.769
  121          56.319          66.384          84.163          84.430          96.087         102.725
  122          54.697          64.736          82.470          84.029          96.285         102.700
  123          53.033          63.017          80.409          83.875          96.488         102.694
  124          51.329          61.231          78.250          83.702          96.695         102.707
  125          49.585          59.378          75.994          83.512          96.905         102.740
  126          47.803          57.458          73.642          83.307          97.119         102.792
  127          45.985          55.474          71.196          83.089          97.335         102.863
  128          44.132          53.428          68.658          82.859          97.553         102.951
  129          42.246          51.319          66.030          82.620          97.772         103.055
  130          40.328          49.152          63.314          82.375          97.990         103.174
  131          38.379          46.926          60.515          82.124          98.208         103.306
  132          36.403          44.645          57.633          81.871          98.423         103.448
  133          34.399          42.311          54.674          81.617          98.634         103.600
  134          32.370          39.926          51.639          81.365          98.841         103.757
  135          30.318          37.493          48.533          81.117          99.042         103.919
  136          28.243          35.014          45.360          80.875          99.235         104.083
  137          26.148          32.491          42.123          80.641          99.421         104.246
  138          24.034          29.929          38.827          80.418          99.596         104.406
  139          21.904          27.330          35.477          80.206          99.761         104.561
  140          19.757          24.696          32.076          80.009          99.913         104.709
  141          17.597          22.031          28.629          79.827         100.053         104.847
  142          15.424          19.339          25.141          79.662         100.179         104.974
  143          13.240          16.622          21.617          79.516         100.290         105.087
  144          11.048          13.884          18.062          79.391         100.385         105.186
  145           8.847          11.129          14.481          79.286         100.464         105.269
  146           6.641           8.359          10.879          79.204         100.526         105.335
  147           4.430           5.579           7.262          79.145         100.570         105.382
  148           2.216           2.791           3.633          79.109         100.597         105.411
  149           0.000           0.000           0.000          79.097         100.606         105.421
  150           2.652           2.834           3.955          79.079         100.605         105.376
  151           5.300           5.665           7.903          79.026         100.601         105.242
  152           7.940           8.494          11.835          78.937         100.593         105.019
  153          10.568          11.318          15.745          78.811         100.579         104.706
  154          13.181          14.135          19.624          78.648         100.558         104.306
  155          15.774          16.944          23.465          78.448         100.525         103.817
  156          18.344          19.744          27.261          78.209         100.477         103.241
  157          20.886          22.532          31.004          77.930         100.410         102.579
  158          23.399          25.306          34.689          77.609         100.320         101.830
  159          25.877          28.066          38.307          77.247         100.201         100.997
  160          28.318          30.809          41.854          76.840         100.048         100.080
  161          30.718          33.533          45.322          76.387          99.080          99.855
  162          33.075          36.237          48.706          75.888          97.999          99.616
  163          35.385          38.919          52.001          75.339          96.838          99.326
  164          37.646          41.576          55.200          74.740          95.599          98.978
  165          39.855          44.208          58.300          74.089          94.282          98.566
  166          42.009          46.811          61.296          73.384          92.890          98.084
  167          44.108          49.384          64.183          72.623          91.425          97.527
  168          46.147          51.925          66.958          71.805          89.889          96.888
  169          48.127          54.432          69.616          70.928          88.284          96.162
  170          50.044          56.903          69.990          72.155          86.613          95.345
  171          51.899          59.335          68.991          74.566          84.884          94.430
  172          53.688          61.727          67.929          76.833          83.113          93.415
  173          55.413          64.076          66.804          78.843          81.415          92.294
  174          57.071          65.613          66.380          78.913          81.473          91.064
  175          58.662          64.356          68.636          77.093          83.239          89.723
  176          60.186          63.033          70.841          75.082          85.018          88.268
  177          61.643          61.643          72.992          72.992          86.699          86.699
