# Phonon frequencies in cm-1
    1           0.000           0.000           0.000          50.150          71.975          73.164          78.988          84.682          88.519          90.984          91.616          95.771          96.156         106.892         106.981         108.800         112.456         112.713         113.839         114.715         123.111         124.195         125.560         127.447
    2           0.607           0.692           0.758          50.154          71.975          73.164          78.989          84.681          88.519          90.984          91.615          95.773          96.154         106.894         106.979         108.799         112.458         112.712         113.836         114.717         123.103         124.195         125.563         127.449
    3           1.214           1.383           1.515          50.165          71.973          73.164          78.990          84.678          88.519          90.984          91.615          95.779          96.148         106.897         106.971         108.796         112.463         112.710         113.824         114.720         123.076         124.194         125.574         127.456
    4           1.822           2.075           2.273          50.183          71.971          73.164          78.993          84.674          88.519          90.985          91.614          95.789          96.137         106.903         106.957         108.789         112.472         112.707         113.806         114.726         123.033         124.193         125.592         127.468
    5           2.429           2.766           3.032          50.208          71.969          73.164          78.996          84.668          88.519          90.986          91.613          95.802          96.122         106.912         106.938         108.781         112.485         112.703         113.780         114.734         122.974         124.190         125.615         127.486
    6           3.035           3.457           3.790          50.241          71.965          73.164          79.000          84.660          88.518          90.987          91.612          95.819          96.103         106.914         106.922         108.770         112.501         112.697         113.747         114.744         122.900         124.188         125.643         127.507
    7           3.642           4.147           4.549          50.281          71.961          73.163          79.005          84.651          88.518          90.989          91.610          95.841          96.080         106.885         106.935         108.756         112.520         112.690         113.707         114.755         122.813         124.184         125.675         127.534
    8           4.248           4.837           5.308          50.328          71.956          73.163          79.011          84.640          88.517          90.990          91.608          95.865          96.052         106.851         106.951         108.741         112.543         112.682         113.661         114.768         122.713         124.180         125.709         127.565
    9           4.854           5.527           6.068          50.382          71.950          73.163          79.018          84.627          88.516          90.992          91.606          95.894          96.021         106.812         106.968         108.722         112.570         112.673         113.608         114.781         122.601         124.175         125.745         127.601
   10           5.459           6.215           6.828          50.443          71.943          73.163          79.026          84.613          88.515          90.995          91.604          95.927          95.984         106.769         106.987         108.702         112.601         112.662         113.549         114.796         122.479         124.170         125.781         127.641
   11           6.064           6.904           7.589          50.510          71.935          73.163          79.034          84.597          88.513          90.998          91.601          95.944          95.963         106.721         107.009         108.679         112.636         112.650         113.484         114.810         122.348         124.164         125.816         127.685
   12           6.669           7.591           8.351          50.584          71.927          73.163          79.043          84.579          88.511          91.001          91.598          95.899          96.004         106.668         107.032         108.654         112.637         112.674         113.413         114.825         122.209         124.158         125.851         127.733
   13           7.273           8.277           9.113          50.665          71.917          73.163          79.053          84.560          88.509          91.005          91.595          95.849          96.048         106.612         107.057         108.626         112.623         112.716         113.337         114.839         122.062         124.150         125.883         127.785
   14           7.876           8.963           9.876          50.752          71.906          73.164          79.064          84.540          88.506          91.009          91.591          95.796          96.096         106.552         107.084         108.597         112.607         112.762         113.255         114.852         121.908         124.143         125.914         127.841
   15           8.479           9.648          10.640          50.845          71.894          73.165          79.075          84.518          88.502          91.014          91.587          95.737          96.148         106.488         107.112         108.565         112.591         112.813         113.168         114.864         121.748         124.134         125.942         127.901
   16           9.080          10.331          11.405          50.945          71.880          73.166          79.088          84.494          88.498          91.019          91.583          95.674          96.204         106.421         107.142         108.531         112.572         112.867         113.076         114.875         121.582         124.125         125.967         127.963
   17           9.682          11.014          12.171          51.050          71.866          73.168          79.100          84.470          88.493          91.025          91.579          95.607          96.263         106.351         107.173         108.495         112.553         112.926         112.979         114.884         121.412         124.116         125.989         128.029
   18          10.282          11.695          12.938          51.161          71.850          73.171          79.114          84.444          88.487          91.032          91.575          95.535          96.327         106.278         107.206         108.457         112.532         112.878         112.989         114.889         121.237         124.105         126.007         128.097
   19          10.882          12.375          13.706          51.277          71.832          73.174          79.127          84.416          88.480          91.040          91.570          95.459          96.394         106.202         107.239         108.417         112.511         112.772         113.056         114.892         121.059         124.094         126.022         128.168
   20          11.480          13.053          14.475          51.399          71.813          73.178          79.142          84.388          88.473          91.048          91.565          95.377          96.465         106.123         107.274         108.375         112.487         112.661         113.128         114.891         120.878         124.083         126.033         128.241
   21          12.078          13.730          15.245          51.525          71.791          73.183          79.157          84.358          88.464          91.057          91.560          95.292          96.540         106.042         107.309         108.331         112.463         112.547         113.204         114.885         120.696         124.071         126.040         128.316
   22          12.674          14.406          16.016          51.656          71.768          73.189          79.172          84.328          88.454          91.066          91.555          95.201          96.619         105.959         107.345         108.286         112.429         112.437         113.284         114.874         120.512         124.058         126.044         128.393
   23          13.270          15.080          16.788          51.792          71.743          73.196          79.188          84.297          88.442          91.077          91.550          95.106          96.701         105.874         107.382         108.238         112.306         112.410         113.370         114.856         120.328         124.045         126.043         128.471
   24          13.864          15.752          17.562          51.932          71.716          73.205          79.204          84.264          88.430          91.089          91.544          95.006          96.788         105.787         107.419         108.189         112.181         112.382         113.460         114.831         120.145         124.031         126.039         128.551
   25          14.458          16.423          18.336          52.077          71.687          73.215          79.220          84.231          88.416          91.101          91.538          94.902          96.878         105.698         107.457         108.139         112.052         112.353         113.554         114.798         119.964         124.017         126.031         128.631
   26          15.050          17.092          19.112          52.225          71.655          73.226          79.237          84.198          88.400          91.114          91.533          94.792          96.972         105.608         107.494         108.087         111.920         112.322         113.654         114.755         119.786         124.002         126.018         128.713
   27          15.640          17.759          19.889          52.376          71.620          73.239          79.254          84.163          88.383          91.129          91.527          94.679          97.069         105.516         107.532         108.033         111.785         112.290         113.758         114.701         119.613         123.986         126.002         128.794
   28          16.230          18.423          20.667          52.531          71.583          73.254          79.271          84.129          88.364          91.144          91.521          94.560          97.170         105.423         107.570         107.979         111.648         112.257         113.866         114.635         119.445         123.970         125.982         128.876
   29          16.818          19.086          21.446          52.689          71.543          73.271          79.289          84.093          88.344          91.160          91.515          94.437          97.275         105.328         107.608         107.923         111.508         112.222         113.980         114.555         119.284         123.953         125.958         128.959
   30          17.405          19.747          22.227          52.849          71.500          73.290          79.307          84.058          88.322          91.177          91.509          94.310          97.384         105.232         107.646         107.866         111.365         112.186         114.098         114.460         119.132         123.936         125.930         129.041
   31          17.990          20.406          23.008          53.012          71.455          73.312          79.325          84.023          88.298          91.195          91.503          94.178          97.496         105.134         107.684         107.807         111.221         112.149         114.221         114.350         118.989         123.918         125.897         129.122
   32          18.573          21.062          23.791          53.177          71.406          73.335          79.344          83.987          88.271          91.214          91.496          94.041          97.611         105.035         107.721         107.748         111.076         112.111         114.222         114.349         118.856         123.900         125.861         129.204
   33          19.155          21.716          24.574          53.344          71.353          73.361          79.362          83.952          88.243          91.234          91.490          93.900          97.730         104.934         107.688         107.759         110.928         112.071         114.076         114.482         118.735         123.881         125.821         129.284
   34          19.736          22.368          25.359          53.512          71.298          73.389          79.381          83.917          88.213          91.255          91.484          93.755          97.853         104.832         107.628         107.796         110.780         112.030         113.912         114.619         118.626         123.861         125.778         129.364
   35          20.315          23.017          26.145          53.681          71.239          73.419          79.400          83.883          88.181          91.276          91.478          93.606          97.978         104.728         107.566         107.832         110.630         111.988         113.729         114.760         118.529         123.841         125.730         129.443
   36          20.891          23.664          26.932          53.851          71.176          73.452          79.420          83.849          88.147          91.298          91.471          93.452          98.107         104.623         107.504         107.868         110.480         111.944         113.528         114.906         118.443         123.821         125.679         129.520
   37          21.467          24.308          27.719          54.022          71.110          73.488          79.440          83.815          88.110          91.321          91.465          93.294          98.239         104.515         107.442         107.904         110.329         111.900         113.309         115.057         118.369         123.800         125.624         129.596
   38          22.040          24.950          28.508          54.192          71.040          73.527          79.460          83.783          88.072          91.345          91.459          93.133          98.375         104.406         107.380         107.940         110.178         111.854         113.073         115.212         118.306         123.778         125.565         129.671
   39          22.611          25.588          29.297          54.363          70.967          73.568          79.480          83.752          88.031          91.369          91.453          92.967          98.513         104.294         107.317         107.975         110.028         111.806         112.820         115.371         118.253         123.756         125.503         129.744
   40          23.181          26.224          30.088          54.532          70.890          73.611          79.501          83.722          87.988          91.394          91.447          92.798          98.655         104.180         107.254         108.010         109.877         111.758         112.551         115.534         118.209         123.733         125.437         129.815
   41          23.748          26.857          30.879          54.701          70.809          73.658          79.523          83.693          87.943          91.419          91.441          92.625          98.799         104.063         107.192         108.044         109.727         111.708         112.268         115.702         118.174         123.710         125.368         129.885
   42          24.314          27.488          31.670          54.869          70.724          73.707          79.545          83.666          87.895          91.436          91.444          92.449          98.946         103.943         107.129         108.079         109.578         111.657         111.971         115.873         118.146         123.686         125.295         129.952
   43          24.877          28.115          32.463          55.035          70.635          73.760          79.567          83.640          87.845          91.430          91.470          92.269          99.095         103.820         107.067         108.113         109.430         111.605         111.661         116.048         118.125         123.662         125.219         130.017
   44          25.438          28.739          33.255          55.198          70.542          73.815          79.590          83.617          87.793          91.425          91.496          92.086          99.248         103.693         107.005         108.146         109.283         111.340         111.551         116.227         118.109         123.638         125.140         130.080
   45          25.997          29.360          34.049          55.360          70.445          73.873          79.614          83.596          87.738          91.419          91.523          91.899          99.402         103.563         106.944         108.180         109.136         111.008         111.497         116.409         118.098         123.613         125.057         130.141
   46          26.554          29.978          34.842          55.518          70.344          73.934          79.639          83.577          87.681          91.414          91.549          91.710          99.559         103.429         106.884         108.214         108.991         110.667         111.441         116.594         118.092         123.587         124.972         130.199
   47          27.108          30.593          35.636          55.674          70.240          73.997          79.665          83.560          87.622          91.410          91.517          91.575          99.718         103.291         106.825         108.247         108.845         110.318         111.384         116.783         118.089         123.561         124.883         130.254
   48          27.660          31.204          36.431          55.826          70.130          74.064          79.692          83.546          87.560          91.322          91.405          91.601          99.880         103.148         106.766         108.281         108.697         109.965         111.325         116.975         118.089         123.535         124.792         130.306
   49          28.210          31.812          37.225          55.973          70.017          74.133          79.720          83.535          87.496          91.124          91.400          91.627         100.043         103.001         106.709         108.315         108.545         109.610         111.266         117.169         118.092         123.508         124.698         130.356
   50          28.757          32.417          38.019          56.117          69.900          74.206          79.750          83.527          87.429          90.924          91.396          91.653         100.208         102.848         106.653         108.350         108.382         109.261         111.205         117.367         118.097         123.481         124.601         130.403
   51          29.301          33.018          38.814          56.256          69.778          74.281          79.781          83.522          87.360          90.721          91.392          91.678         100.374         102.691         106.599         108.194         108.384         108.931         111.144         117.567         118.103         123.453         124.502         130.447
   52          29.843          33.616          39.608          56.390          69.652          74.359          79.813          83.521          87.289          90.515          91.389          91.703         100.542         102.529         106.546         107.961         108.420         108.643         111.081         117.769         118.111         123.425         124.400         130.488
   53          30.382          34.210          40.402          56.518          69.521          74.441          79.848          83.523          87.215          90.307          91.385          91.727         100.711         102.361         106.494         107.665         108.414         108.455         111.017         117.974         118.119         123.397         124.297         130.525
   54          30.919          34.800          41.196          56.640          69.387          74.525          79.884          83.530          87.139          90.098          91.382          91.751         100.882         102.188         106.445         107.315         108.237         108.492         110.951         118.128         118.180         123.368         124.191         130.559
   55          31.452          35.387          41.989          56.756          69.248          74.612          79.922          83.540          87.060          89.885          91.379          91.774         101.053         102.009         106.397         106.928         108.093         108.530         110.885         118.137         118.389         123.339         124.084         130.590
   56          31.983          35.970          42.782          56.865          69.104          74.702          79.963          83.554          86.979          89.671          91.377          91.796         101.225         101.825         106.351         106.519         107.968         108.568         110.818         118.146         118.599         123.310         123.974         130.618
   57          32.511          36.549          43.574          56.968          68.956          74.794          80.006          83.572          86.895          89.455          91.375          91.817         101.397         101.635         106.096         106.308         107.857         108.608         110.749         118.154         118.811         123.281         123.864         130.642
   58          33.036          37.125          44.365          57.063          68.803          74.890          80.051          83.595          86.809          89.237          91.373          91.838         101.440         101.570         105.661         106.267         107.754         108.650         110.680         118.161         119.024         123.251         123.752         130.663
   59          33.558          37.696          45.155          57.151          68.646          74.988          80.100          83.623          86.720          89.018          91.372          91.857         101.239         101.742         105.216         106.228         107.660         108.693         110.609         118.167         119.238         123.222         123.639         130.680
   60          34.077          38.263          45.944          57.230          68.484          75.089          80.151          83.656          86.629          88.796          91.371          91.875         101.033         101.914         104.764         106.192         107.571         108.737         110.538         118.172         119.453         123.192         123.526         130.693
   61          34.592          38.827          46.732          57.302          68.318          75.193          80.205          83.693          86.535          88.573          91.370          91.893         100.821         102.086         104.305         106.158         107.488         108.784         110.465         118.174         119.669         123.162         123.412         130.702
   62          35.105          39.386          47.518          57.365          68.147          75.300          80.262          83.736          86.439          88.348          91.370          91.909         100.605         102.257         103.840         106.127         107.411         108.833         110.392         118.175         119.885         123.132         123.298         130.708
   63          35.614          39.941          48.302          57.419          67.972          75.409          80.323          83.784          86.340          88.121          91.370          91.924         100.384         102.427         103.368         106.099         107.338         108.884         110.318         118.173         120.102         123.103         123.185         130.710
   64          36.120          40.493          49.085          57.464          67.791          75.522          80.386          83.838          86.239          87.892          91.371          91.938         100.157         102.596         102.892         106.074         107.269         108.938         110.242         118.168         120.318         123.072         123.074         130.708
   65          36.622          41.039          49.865          57.501          67.606          75.636          80.454          83.897          86.136          87.662          91.372          91.950          99.926         102.410         102.763         106.051         107.204         108.995         110.166         118.160         120.534         122.960         123.045         130.703
   66          37.121          41.582          50.642          57.529          67.416          75.754          80.525          83.962          86.029          87.430          91.374          91.962          99.691         101.923         102.928         106.032         107.144         109.054         110.089         118.148         120.749         122.850         123.018         130.693
   67          37.617          42.120          51.416          57.548          67.222          75.874          80.600          84.033          85.921          87.196          91.376          91.972          99.451         101.433         103.090         106.015         107.087         109.118         110.012         118.131         120.963         122.741         122.991         130.679
   68          38.109          42.654          52.187          57.559          67.023          75.996          80.678          84.111          85.810          86.960          91.378          91.980          99.207         100.938         103.250         106.002         107.033         109.185         109.933         118.111         121.174         122.635         122.967         130.662
   69          38.597          43.184          52.951          57.564          66.818          76.121          80.761          84.194          85.696          86.722          91.381          91.988          98.958         100.440         103.407         105.992         106.982         109.256         109.854         118.085         121.382         122.531         122.946         130.640
   70          39.081          43.709          53.709          57.562          66.609          76.248          80.847          84.284          85.580          86.482          91.384          91.994          98.706          99.939         103.561         105.985         106.935         109.331         109.774         118.053         121.584         122.431         122.930         130.614
   71          39.562          44.230          54.454          57.560          66.395          76.378          80.937          84.380          85.462          86.239          91.388          91.999          98.450          99.436         103.712         105.981         106.890         109.410         109.693         118.016         121.778         122.335         122.921         130.584
   72          40.039          44.746          55.179          57.565          66.176          76.510          81.031          84.482          85.341          85.994          91.392          92.002          98.188          98.932         103.858         105.981         106.848         109.494         109.612         117.973         121.958         122.243         122.925         130.550
   73          40.511          45.258          55.858          57.602          65.953          76.645          81.129          84.592          85.218          85.746          91.397          92.005          97.920          98.429         104.001         105.984         106.809         109.530         109.583         117.922         122.117         122.155         122.950         130.512
   74          40.980          45.765          56.425          57.737          65.724          76.781          81.231          84.708          85.093          85.495          91.403          92.006          97.637          97.937         104.138         105.990         106.771         109.448         109.677         117.865         122.073         122.243         123.007         130.470
   75          41.445          46.268          56.758          58.092          65.490          76.920          81.337          84.831          84.965          85.240          91.408          92.005          97.291          97.503         104.272         105.999         106.736         109.365         109.776         117.800         121.996         122.328         123.104         130.423
   76          41.905          46.765          56.861          58.664          65.251          77.061          81.447          84.835          84.961          84.982          91.415          92.004          96.832          97.179         104.400         106.011         106.702         109.282         109.881         117.728         121.924         122.373         123.239         130.372
   77          42.361          47.258          56.850          59.335          65.007          77.203          81.561          84.702          84.720          85.097          91.421          92.001          96.332          96.894         104.523         106.027         106.671         109.198         109.991         117.648         121.859         122.390         123.401         130.318
   78          42.813          47.747          56.788          60.042          64.759          77.348          81.680          84.453          84.568          85.241          91.429          91.997          95.825          96.615         104.641         106.046         106.641         109.114         110.106         117.559         121.800         122.388         123.581         130.259
   79          43.260          48.231          56.698          60.763          64.505          77.495          81.802          84.181          84.431          85.391          91.436          91.993          95.315          96.337         104.754         106.068         106.612         109.030         110.228         117.464         121.746         122.375         123.769         130.195
   80          43.703          48.709          56.588          61.489          64.246          77.643          81.929          83.903          84.293          85.549          91.445          91.987          94.806          96.058         104.862         106.093         106.585         108.945         110.355         117.360         121.699         122.356         123.963         130.128
   81          44.141          49.183          56.463          62.216          63.982          77.793          82.060          83.619          84.152          85.713          91.453          91.980          94.298          95.779         104.964         106.121         106.559         108.860         110.487         117.248         121.658         122.332         124.160         130.056
   82          44.575          49.653          56.324          62.941          63.713          77.945          82.195          83.328          84.009          85.884          91.463          91.972          93.794          95.499         105.060         106.153         106.535         108.775         110.625         117.130         121.623         122.305         124.358         129.981
   83          45.003          50.117          56.172          63.438          63.664          78.098          82.335          83.030          83.865          86.061          91.472          91.963          93.293          95.217         105.152         106.187         106.511         108.690         110.768         117.004         121.593         122.276         124.556         129.901
   84          45.427          50.576          56.009          63.159          64.383          78.253          82.480          82.723          83.718          86.245          91.483          91.953          92.798          94.936         105.238         106.224         106.488         108.605         110.916         116.871         121.569         122.245         124.753         129.816
   85          45.846          51.031          55.835          62.874          65.097          78.409          82.406          82.630          83.570          86.435          91.493          91.943          92.308          94.653         105.319         106.264         106.465         108.520         111.069         116.732         121.550         122.214         124.949         129.728
   86          46.259          51.480          55.650          62.585          65.807          78.567          82.080          82.785          83.420          86.632          91.504          91.825          91.932          94.370         105.396         106.307         106.443         108.435         111.227         116.586         121.536         122.182         125.144         129.636
   87          46.668          51.925          55.454          62.290          66.511          78.725          81.743          82.945          83.268          86.835          91.350          91.516          91.920          94.086         105.468         106.352         106.422         108.350         111.389         116.435         121.527         122.150         125.337         129.539
   88          47.071          52.364          55.249          61.990          67.208          78.885          81.393          83.111          83.115          87.043          90.884          91.528          91.907          93.803         105.535         106.400         106.401         108.265         111.555         116.279         121.521         122.117         125.529         129.439
   89          47.468          52.799          55.034          61.684          67.900          79.046          81.031          82.960          83.283          87.257          90.429          91.540          91.894          93.519         105.598         106.380         106.450         108.181         111.725         116.118         121.520         122.084         125.718         129.334
   90          47.860          53.228          54.809          61.374          68.584          79.208          80.655          82.804          83.461          87.477          89.983          91.553          91.881          93.236         105.657         106.360         106.503         108.097         111.899         115.952         121.522         122.051         125.905         129.225
   91          48.247          53.653          54.575          61.058          69.260          79.370          80.265          82.647          83.646          87.702          89.550          91.566          91.867          92.953         105.712         106.339         106.558         108.013         112.075         115.783         121.528         122.018         126.089         129.113
   92          48.628          54.072          54.333          60.737          69.929          79.534          79.859          82.488          83.838          87.932          89.130          91.579          91.852          92.671         105.764         106.318         106.616         107.930         112.255         115.610         121.536         121.985         126.271         128.996
   93          49.002          54.081          54.486          60.411          70.588          79.437          79.698          82.329          84.038          88.167          88.722          91.593          91.838          92.389         105.812         106.297         106.675         107.848         112.437         115.433         121.547         121.952         126.450         128.875
   94          49.371          53.820          54.896          60.080          71.238          79.000          79.862          82.168          84.245          88.329          88.406          91.607          91.823          92.109         105.857         106.276         106.737         107.766         112.621         115.254         121.561         121.920         126.626         128.751
   95          49.734          53.552          55.300          59.744          71.879          78.545          80.027          82.006          84.462          87.950          88.650          91.622          91.807          91.830         105.899         106.254         106.800         107.685         112.807         115.072         121.577         121.888         126.799         128.622
   96          50.090          53.275          55.698          59.402          72.508          78.074          80.193          81.844          84.688          87.585          88.898          91.552          91.637          91.792         105.939         106.231         106.866         107.605         112.995         114.888         121.595         121.857         126.970         128.490
   97          50.440          52.990          56.092          59.055          73.127          77.587          80.358          81.680          84.923          87.235          89.150          91.276          91.652          91.776         105.976         106.208         106.933         107.525         113.184         114.702         121.616         121.826         127.137         128.354
   98          50.783          52.697          56.481          58.703          73.733          77.082          80.524          81.516          85.169          86.899          89.405          91.001          91.667          91.761         106.011         106.184         107.002         107.447         113.373         114.514         121.637         121.796         127.301         128.214
   99          51.120          52.396          56.864          58.345          74.327          76.562          80.690          81.352          85.426          86.578          89.664          90.729          91.682          91.745         106.044         106.159         107.073         107.370         113.564         114.325         121.661         121.767         127.462         128.071
  100          51.450          52.088          57.242          57.983          74.907          76.025          80.856          81.187          85.695          86.270          89.926          90.458          91.698          91.729         106.075         106.132         107.145         107.293         113.755         114.136         121.686         121.739         127.619         127.924
  101          51.772          51.772          57.615          57.615          75.474          75.474          81.021          81.021          85.976          85.976          90.191          90.191          91.713          91.713         106.104         106.104         107.219         107.219         113.945         113.945         121.712         121.712         127.773         127.773
  102          51.776          51.776          57.617          57.617          75.474          75.474          81.020          81.020          85.972          85.972          90.196          90.196          91.714          91.714         106.104         106.104         107.218         107.218         113.945         113.945         121.709         121.709         127.773         127.773
  103          51.789          51.789          57.621          57.621          75.476          75.476          81.016          81.016          85.959          85.959          90.213          90.213          91.717          91.717         106.103         106.103         107.216         107.216         113.945         113.945         121.701         121.701         127.772         127.772
  104          51.810          51.810          57.629          57.629          75.479          75.479          81.010          81.010          85.937          85.937          90.241          90.241          91.722          91.722         106.101         106.101         107.212         107.212         113.945         113.945         121.689         121.689         127.771         127.771
  105          51.839          51.839          57.641          57.641          75.483          75.483          81.001          81.001          85.908          85.908          90.279          90.279          91.729          91.729         106.099         106.099         107.207         107.207         113.944         113.944         121.671         121.671         127.769         127.769
  106          51.877          51.877          57.655          57.655          75.488          75.488          80.989          80.989          85.871          85.871          90.327          90.327          91.738          91.738         106.096         106.096         107.200         107.200         113.944         113.944         121.648         121.648         127.766         127.766
  107          51.923          51.923          57.672          57.672          75.494          75.494          80.975          80.975          85.827          85.827          90.385          90.385          91.749          91.749         106.092         106.092         107.192         107.192         113.943         113.943         121.620         121.620         127.763         127.763
  108          51.978          51.978          57.693          57.693          75.502          75.502          80.958          80.958          85.777          85.777          90.451          90.451          91.762          91.762         106.087         106.087         107.183         107.183         113.943         113.943         121.587         121.587         127.759         127.759
  109          52.040          52.040          57.717          57.717          75.510          75.510          80.939          80.939          85.721          85.721          90.526          90.526          91.776          91.776         106.082         106.082         107.172         107.172         113.942         113.942         121.548         121.548         127.754         127.754
  110          52.111          52.111          57.744          57.744          75.520          75.520          80.917          80.917          85.660          85.660          90.608          90.608          91.793          91.793         106.077         106.077         107.160         107.160         113.941         113.941         121.505         121.505         127.749         127.749
  111          52.189          52.189          57.774          57.774          75.530          75.530          80.893          80.893          85.595          85.595          90.697          90.697          91.812          91.812         106.070         106.070         107.146         107.146         113.940         113.940         121.457         121.457         127.743         127.743
  112          52.276          52.276          57.807          57.807          75.542          75.542          80.866          80.866          85.526          85.526          90.792          90.792          91.832          91.832         106.063         106.063         107.131         107.131         113.939         113.939         121.404         121.404         127.737         127.737
  113          52.370          52.370          57.843          57.843          75.555          75.555          80.837          80.837          85.455          85.455          90.892          90.892          91.854          91.854         106.055         106.055         107.114         107.114         113.938         113.938         121.346         121.346         127.730         127.730
  114          52.473          52.473          57.882          57.882          75.568          75.568          80.805          80.805          85.381          85.381          90.998          90.998          91.878          91.878         106.047         106.047         107.096         107.096         113.936         113.936         121.283         121.283         127.723         127.723
  115          52.582          52.582          57.924          57.924          75.583          75.583          80.771          80.771          85.305          85.305          91.108          91.108          91.904          91.904         106.037         106.037         107.077         107.077         113.935         113.935         121.215         121.215         127.714         127.714
  116          52.700          52.700          57.970          57.970          75.598          75.598          80.735          80.735          85.228          85.228          91.222          91.222          91.932          91.932         106.028         106.028         107.056         107.056         113.933         113.933         121.142         121.142         127.706         127.706
  117          52.824          52.824          58.018          58.018          75.614          75.614          80.696          80.696          85.150          85.150          91.339          91.339          91.961          91.961         106.017         106.017         107.034         107.034         113.932         113.932         121.065         121.065         127.696         127.696
  118          52.956          52.956          58.069          58.069          75.631          75.631          80.655          80.655          85.072          85.072          91.459          91.459          91.993          91.993         106.006         106.006         107.011         107.011         113.930         113.930         120.983         120.983         127.686         127.686
  119          53.095          53.095          58.123          58.123          75.648          75.648          80.611          80.611          84.994          84.994          91.582          91.582          92.025          92.025         105.994         105.994         106.986         106.986         113.928         113.928         120.896         120.896         127.676         127.676
  120          53.241          53.241          58.180          58.180          75.667          75.667          80.566          80.566          84.916          84.916          91.708          91.708          92.060          92.060         105.982         105.982         106.959         106.959         113.926         113.926         120.804         120.804         127.665         127.665
  121          53.394          53.394          58.240          58.240          75.686          75.686          80.518          80.518          84.839          84.839          91.835          91.835          92.096          92.096         105.969         105.969         106.932         106.932         113.924         113.924         120.708         120.708         127.653         127.653
  122          53.554          53.554          58.303          58.303          75.705          75.705          80.468          80.468          84.763          84.763          91.964          91.964          92.134          92.134         105.955         105.955         106.903         106.903         113.922         113.922         120.608         120.608         127.640         127.640
  123          53.719          53.719          58.368          58.368          75.725          75.725          80.415          80.415          84.688          84.688          92.095          92.095          92.173          92.173         105.941         105.941         106.873         106.873         113.919         113.919         120.503         120.503         127.628         127.628
  124          53.892          53.892          58.436          58.436          75.745          75.745          80.361          80.361          84.615          84.615          92.214          92.214          92.227          92.227         105.926         105.926         106.841         106.841         113.917         113.917         120.394         120.394         127.614         127.614
  125          54.070          54.070          58.507          58.507          75.766          75.766          80.304          80.304          84.544          84.544          92.256          92.256          92.360          92.360         105.910         105.910         106.809         106.809         113.914         113.914         120.280         120.280         127.600         127.600
  126          54.254          54.254          58.581          58.581          75.787          75.787          80.245          80.245          84.474          84.474          92.300          92.300          92.494          92.494         105.894         105.894         106.775         106.775         113.911         113.911         120.162         120.162         127.585         127.585
  127          54.444          54.444          58.657          58.657          75.808          75.808          80.185          80.185          84.408          84.408          92.345          92.345          92.629          92.629         105.877         105.877         106.739         106.739         113.908         113.908         120.040         120.040         127.570         127.570
  128          54.639          54.639          58.735          58.735          75.829          75.829          80.122          80.122          84.343          84.343          92.392          92.392          92.764          92.764         105.860         105.860         106.703         106.703         113.904         113.904         119.914         119.914         127.554         127.554
  129          54.839          54.839          58.817          58.817          75.850          75.850          80.057          80.057          84.282          84.282          92.440          92.440          92.900          92.900         105.842         105.842         106.665         106.665         113.900         113.900         119.785         119.785         127.538         127.538
  130          55.045          55.045          58.900          58.900          75.871          75.871          79.991          79.991          84.223          84.223          92.489          92.489          93.036          93.036         105.823         105.823         106.626         106.626         113.896         113.896         119.651         119.651         127.521         127.521
  131          55.255          55.255          58.987          58.987          75.892          75.892          79.922          79.922          84.168          84.168          92.540          92.540          93.172          93.172         105.804         105.804         106.586         106.586         113.892         113.892         119.514         119.514         127.504         127.504
  132          55.470          55.470          59.075          59.075          75.912          75.912          79.852          79.852          84.116          84.116          92.591          92.591          93.308          93.308         105.784         105.784         106.545         106.545         113.887         113.887         119.373         119.373         127.486         127.486
  133          55.690          55.690          59.166          59.166          75.932          75.932          79.780          79.780          84.068          84.068          92.644          92.644          93.444          93.444         105.763         105.763         106.503         106.503         113.881         113.881         119.229         119.229         127.467         127.467
  134          55.914          55.914          59.259          59.259          75.951          75.951          79.706          79.706          84.023          84.023          92.698          92.698          93.579          93.579         105.742         105.742         106.459         106.459         113.875         113.875         119.081         119.081         127.448         127.448
  135          56.141          56.141          59.354          59.354          75.970          75.970          79.630          79.630          83.983          83.983          92.753          92.753          93.715          93.715         105.720         105.720         106.415         106.415         113.869         113.869         118.931         118.931         127.429         127.429
  136          56.373          56.373          59.452          59.452          75.988          75.988          79.552          79.552          83.946          83.946          92.810          92.810          93.849          93.849         105.698         105.698         106.369         106.369         113.861         113.861         118.777         118.777         127.409         127.409
  137          56.608          56.608          59.551          59.551          76.005          76.005          79.473          79.473          83.914          83.914          92.867          92.867          93.984          93.984         105.675         105.675         106.323         106.323         113.853         113.853         118.621         118.621         127.389         127.389
  138          56.846          56.846          59.653          59.653          76.021          76.021          79.393          79.393          83.886          83.886          92.925          92.925          94.117          94.117         105.652         105.652         106.275         106.275         113.844         113.844         118.462         118.462         127.368         127.368
  139          57.087          57.087          59.757          59.757          76.036          76.036          79.311          79.311          83.863          83.863          92.984          92.984          94.251          94.251         105.627         105.627         106.226         106.226         113.833         113.833         118.302         118.302         127.347         127.347
  140          57.331          57.331          59.862          59.862          76.050          76.050          79.227          79.227          83.845          83.845          93.044          93.044          94.383          94.383         105.603         105.603         106.177         106.177         113.821         113.821         118.139         118.139         127.325         127.325
  141          57.578          57.578          59.969          59.969          76.062          76.062          79.142          79.142          83.832          83.832          93.105          93.105          94.514          94.514         105.577         105.577         106.126         106.126         113.807         113.807         117.975         117.975         127.303         127.303
  142          57.827          57.827          60.079          60.079          76.073          76.073          79.055          79.055          83.823          83.823          93.167          93.167          94.645          94.645         105.551         105.551         106.075         106.075         113.792         113.792         117.810         117.810         127.281         127.281
  143          58.078          58.078          60.189          60.189          76.082          76.082          78.967          78.967          83.820          83.820          93.230          93.230          94.775          94.775         105.525         105.525         106.023         106.023         113.774         113.774         117.644         117.644         127.259         127.259
  144          58.330          58.330          60.302          60.302          76.090          76.090          78.877          78.877          83.822          83.822          93.293          93.293          94.903          94.903         105.498         105.498         105.970         105.970         113.753         113.753         117.478         117.478         127.236         127.236
  145          58.585          58.585          60.416          60.416          76.096          76.096          78.787          78.787          83.829          83.829          93.357          93.357          95.031          95.031         105.470         105.470         105.916         105.916         113.729         113.729         117.312         117.312         127.212         127.212
  146          58.840          58.840          60.531          60.531          76.100          76.100          78.695          78.695          83.842          83.842          93.421          93.421          95.157          95.157         105.442         105.442         105.862         105.862         113.702         113.702         117.147         117.147         127.189         127.189
  147          59.097          59.097          60.648          60.648          76.101          76.101          78.601          78.601          83.861          83.861          93.487          93.487          95.283          95.283         105.413         105.413         105.806         105.806         113.670         113.670         116.984         116.984         127.165         127.165
  148          59.355          59.355          60.767          60.767          76.101          76.101          78.507          78.507          83.885          83.885          93.552          93.552          95.407          95.407         105.384         105.384         105.750         105.750         113.634         113.634         116.823         116.823         127.141         127.141
  149          59.613          59.613          60.886          60.886          76.098          76.098          78.412          78.412          83.915          83.915          93.618          93.618          95.530          95.530         105.354         105.354         105.694         105.694         113.591         113.591         116.666         116.666         127.117         127.117
  150          59.871          59.871          61.007          61.007          76.094          76.094          78.315          78.315          83.951          83.951          93.685          93.685          95.651          95.651         105.323         105.323         105.637         105.637         113.542         113.542         116.513         116.513         127.093         127.093
  151          60.130          60.130          61.129          61.129          76.087          76.087          78.218          78.218          83.993          83.993          93.752          93.752          95.772          95.772         105.292         105.292         105.579         105.579         113.486         113.486         116.365         116.365         127.068         127.068
  152          60.389          60.389          61.251          61.251          76.077          76.077          78.119          78.119          84.040          84.040          93.820          93.820          95.891          95.891         105.260         105.260         105.521         105.521         113.420         113.420         116.224         116.224         127.044         127.044
  153          60.647          60.647          61.375          61.375          76.065          76.065          78.020          78.020          84.093          84.093          93.887          93.887          96.008          96.008         105.228         105.228         105.462         105.462         113.346         113.346         116.091         116.091         127.019         127.019
  154          60.904          60.904          61.500          61.500          76.051          76.051          77.920          77.920          84.152          84.152          93.955          93.955          96.124          96.124         105.195         105.195         105.403         105.403         113.261         113.261         115.966         115.966         126.994         126.994
  155          61.161          61.161          61.625          61.625          76.034          76.034          77.819          77.819          84.217          84.217          94.023          94.023          96.239          96.239         105.162         105.162         105.344         105.344         113.165         113.165         115.851         115.851         126.969         126.969
  156          61.417          61.417          61.751          61.751          76.015          76.015          77.717          77.717          84.287          84.287          94.092          94.092          96.352          96.352         105.128         105.128         105.284         105.284         113.058         113.058         115.746         115.746         126.944         126.944
  157          61.671          61.671          61.877          61.877          75.993          75.993          77.615          77.615          84.364          84.364          94.160          94.160          96.463          96.463         105.094         105.094         105.224         105.224         112.939         112.939         115.651         115.651         126.920         126.920
  158          61.924          61.924          62.004          62.004          75.969          75.969          77.513          77.513          84.445          84.445          94.228          94.228          96.573          96.573         105.060         105.060         105.164         105.164         112.808         112.808         115.567         115.567         126.895         126.895
  159          62.131          62.131          62.175          62.175          75.942          75.942          77.409          77.409          84.532          84.532          94.296          94.296          96.681          96.681         105.025         105.025         105.104         105.104         112.666         112.666         115.492         115.492         126.870         126.870
  160          62.259          62.259          62.425          62.425          75.913          75.913          77.306          77.306          84.624          84.624          94.365          94.365          96.788          96.788         104.990         104.990         105.043         105.043         112.514         112.514         115.428         115.428         126.845         126.845
  161          62.386          62.386          62.672          62.672          75.882          75.882          77.202          77.202          84.722          84.722          94.433          94.433          96.892          96.892         104.954         104.954         104.983         104.983         112.353         112.353         115.372         115.372         126.821         126.821
  162          62.514          62.514          62.916          62.916          75.848          75.848          77.098          77.098          84.824          84.824          94.500          94.500          96.995          96.995         104.918         104.918         104.923         104.923         112.182         112.182         115.325         115.325         126.796         126.796
  163          62.641          62.641          63.159          63.159          75.812          75.812          76.994          76.994          84.931          84.931          94.568          94.568          97.096          97.096         104.862         104.862         104.882         104.882         112.004         112.004         115.285         115.285         126.772         126.772
  164          62.768          62.768          63.398          63.398          75.773          75.773          76.890          76.890          85.043          85.043          94.635          94.635          97.195          97.195         104.802         104.802         104.846         104.846         111.819         111.819         115.251         115.251         126.748         126.748
  165          62.895          62.895          63.635          63.635          75.733          75.733          76.786          76.786          85.158          85.158          94.701          94.701          97.292          97.292         104.742         104.742         104.810         104.810         111.629         111.629         115.224         115.224         126.724         126.724
  166          63.021          63.021          63.868          63.868          75.690          75.690          76.682          76.682          85.278          85.278          94.768          94.768          97.388          97.388         104.683         104.683         104.774         104.774         111.434         111.434         115.201         115.201         126.701         126.701
  167          63.147          63.147          64.098          64.098          75.646          75.646          76.578          76.578          85.402          85.402          94.833          94.833          97.480          97.480         104.624         104.624         104.738         104.738         111.235         111.235         115.183         115.183         126.678         126.678
  168          63.271          63.271          64.324          64.324          75.599          75.599          76.475          76.475          85.529          85.529          94.898          94.898          97.571          97.571         104.565         104.565         104.702         104.702         111.033         111.033         115.169         115.169         126.655         126.655
  169          63.395          63.395          64.547          64.547          75.551          75.551          76.372          76.372          85.659          85.659          94.962          94.962          97.660          97.660         104.507         104.507         104.667         104.667         110.829         110.829         115.158         115.158         126.632         126.632
  170          63.518          63.518          64.766          64.766          75.501          75.501          76.270          76.270          85.792          85.792          95.025          95.025          97.746          97.746         104.450         104.450         104.631         104.631         110.623         110.623         115.150         115.150         126.610         126.610
  171          63.639          63.639          64.980          64.980          75.450          75.450          76.169          76.169          85.927          85.927          95.087          95.087          97.830          97.830         104.393         104.393         104.597         104.597         110.416         110.416         115.145         115.145         126.589         126.589
  172          63.759          63.759          65.191          65.191          75.397          75.397          76.069          76.069          86.064          86.064          95.149          95.149          97.911          97.911         104.337         104.337         104.562         104.562         110.209         110.209         115.141         115.141         126.567         126.567
  173          63.877          63.877          65.397          65.397          75.343          75.343          75.970          75.970          86.203          86.203          95.209          95.209          97.990          97.990         104.282         104.282         104.529         104.529         110.002         110.002         115.140         115.140         126.547         126.547
  174          63.993          63.993          65.598          65.598          75.287          75.287          75.872          75.872          86.343          86.343          95.268          95.268          98.066          98.066         104.228         104.228         104.496         104.496         109.797         109.797         115.140         115.140         126.527         126.527
  175          64.107          64.107          65.794          65.794          75.231          75.231          75.776          75.776          86.484          86.484          95.325          95.325          98.140          98.140         104.175         104.175         104.465         104.465         109.592         109.592         115.141         115.141         126.507         126.507
  176          64.219          64.219          65.985          65.985          75.174          75.174          75.681          75.681          86.625          86.625          95.381          95.381          98.210          98.210         104.124         104.124         104.434         104.434         109.390         109.390         115.144         115.144         126.488         126.488
  177          64.329          64.329          66.171          66.171          75.116          75.116          75.589          75.589          86.766          86.766          95.436          95.436          98.278          98.278         104.073         104.073         104.405         104.405         109.191         109.191         115.148         115.148         126.469         126.469
  178          64.436          64.436          66.351          66.351          75.058          75.058          75.498          75.498          86.906          86.906          95.489          95.489          98.342          98.342         104.024         104.024         104.378         104.378         108.994         108.994         115.152         115.152         126.452         126.452
  179          64.540          64.540          66.525          66.525          75.000          75.000          75.409          75.409          87.044          87.044          95.540          95.540          98.404          98.404         103.977         103.977         104.352         104.352         108.801         108.801         115.157         115.157         126.435         126.435
  180          64.641          64.641          66.694          66.694          74.942          74.942          75.323          75.323          87.181          87.181          95.590          95.590          98.462          98.462         103.931         103.931         104.327         104.327         108.613         108.613         115.162         115.162         126.418         126.418
  181          64.738          64.738          66.856          66.856          74.884          74.884          75.240          75.240          87.316          87.316          95.638          95.638          98.517          98.517         103.887         103.887         104.305         104.305         108.429         108.429         115.167         115.167         126.402         126.402
  182          64.832          64.832          67.011          67.011          74.826          74.826          75.160          75.160          87.447          87.447          95.683          95.683          98.569          98.569         103.844         103.844         104.284         104.284         108.251         108.251         115.173         115.173         126.387         126.387
  183          64.922          64.922          67.160          67.160          74.770          74.770          75.082          75.082          87.575          87.575          95.727          95.727          98.617          98.617         103.804         103.804         104.266         104.266         108.078         108.078         115.179         115.179         126.373         126.373
  184          65.008          65.008          67.302          67.302          74.715          74.715          75.008          75.008          87.698          87.698          95.768          95.768          98.662          98.662         103.766         103.766         104.250         104.250         107.912         107.912         115.185         115.185         126.360         126.360
  185          65.089          65.089          67.436          67.436          74.661          74.661          74.938          74.938          87.817          87.817          95.807          95.807          98.703          98.703         103.729         103.729         104.236         104.236         107.753         107.753         115.191         115.191         126.347         126.347
  186          65.166          65.166          67.562          67.562          74.609          74.609          74.872          74.872          87.930          87.930          95.844          95.844          98.741          98.741         103.695         103.695         104.224         104.224         107.602         107.602         115.197         115.197         126.336         126.336
  187          65.238          65.238          67.680          67.680          74.559          74.559          74.810          74.810          88.036          88.036          95.878          95.878          98.776          98.776         103.664         103.664         104.214         104.214         107.459         107.459         115.202         115.202         126.325         126.325
  188          65.304          65.304          67.789          67.789          74.512          74.512          74.752          74.752          88.137          88.137          95.909          95.909          98.807          98.807         103.634         103.634         104.207         104.207         107.326         107.326         115.208         115.208         126.315         126.315
  189          65.366          65.366          67.890          67.890          74.468          74.468          74.699          74.699          88.229          88.229          95.938          95.938          98.835          98.835         103.607         103.607         104.202         104.202         107.202         107.202         115.212         115.212         126.306         126.306
  190          65.421          65.421          67.981          67.981          74.427          74.427          74.651          74.651          88.314          88.314          95.964          95.964          98.859          98.859         103.583         103.583         104.198         104.198         107.088         107.088         115.217         115.217         126.297         126.297
  191          65.471          65.471          68.062          68.062          74.390          74.390          74.608          74.608          88.390          88.390          95.987          95.987          98.881          98.881         103.562         103.562         104.196         104.196         106.985         106.985         115.221         115.221         126.290         126.290
  192          65.514          65.514          68.134          68.134          74.357          74.357          74.570          74.570          88.457          88.457          96.007          96.007          98.899          98.899         103.543         103.543         104.196         104.196         106.895         106.895         115.225         115.225         126.284         126.284
  193          65.551          65.551          68.195          68.195          74.328          74.328          74.537          74.537          88.515          88.515          96.024          96.024          98.914          98.914         103.527         103.527         104.196         104.196         106.816         106.816         115.228         115.228         126.278         126.278
  194          65.582          65.582          68.246          68.246          74.304          74.304          74.511          74.511          88.563          88.563          96.038          96.038          98.926          98.926         103.513         103.513         104.197         104.197         106.751         106.751         115.231         115.231         126.274         126.274
  195          65.606          65.606          68.285          68.285          74.285          74.285          74.490          74.490          88.600          88.600          96.049          96.049          98.936          98.936         103.503         103.503         104.198         104.198         106.700         106.700         115.233         115.233         126.271         126.271
  196          65.623          65.623          68.314          68.314          74.271          74.271          74.475          74.475          88.627          88.627          96.057          96.057          98.943          98.943         103.496         103.496         104.199         104.199         106.663         106.663         115.234         115.234         126.268         126.268
  197          65.633          65.633          68.331          68.331          74.263          74.263          74.466          74.466          88.644          88.644          96.062          96.062          98.947          98.947         103.491         103.491         104.200         104.200         106.640         106.640         115.235         115.235         126.267         126.267
  198          65.637          65.637          68.337          68.337          74.260          74.260          74.463          74.463          88.649          88.649          96.063          96.063          98.948          98.948         103.490         103.490         104.200         104.200         106.633         106.633         115.235         115.235         126.266         126.266
  199          65.636          65.636          68.328          68.328          74.267          74.267          74.462          74.462          88.646          88.646          96.061          96.061          98.952          98.952         103.493         103.493         104.200         104.200         106.634         106.634         115.231         115.231         126.269         126.269
  200          65.634          65.634          68.304          68.304          74.285          74.285          74.461          74.461          88.635          88.635          96.054          96.054          98.964          98.964         103.501         103.501         104.201         104.201         106.638         106.638         115.219         115.219         126.276         126.276
  201          65.630          65.630          68.264          68.264          74.316          74.316          74.460          74.460          88.618          88.618          96.042          96.042          98.984          98.984         103.515         103.515         104.201         104.201         106.644         106.644         115.200         115.200         126.289         126.289
  202          65.625          65.625          68.208          68.208          74.358          74.358          74.458          74.458          88.593          88.593          96.026          96.026          99.013          99.013         103.535         103.535         104.202         104.202         106.652         106.652         115.172         115.172         126.306         126.306
  203          65.619          65.619          68.138          68.138          74.411          74.411          74.455          74.455          88.562          88.562          96.005          96.005          99.048          99.048         103.560         103.560         104.204         104.204         106.663         106.663         115.137         115.137         126.328         126.328
  204          65.611          65.611          68.054          68.054          74.452          74.452          74.474          74.474          88.525          88.525          95.980          95.980          99.092          99.092         103.591         103.591         104.206         104.206         106.676         106.676         115.094         115.094         126.355         126.355
  205          65.602          65.602          67.958          67.958          74.448          74.448          74.546          74.546          88.481          88.481          95.950          95.950          99.142          99.142         103.627         103.627         104.209         104.209         106.691         106.691         115.044         115.044         126.387         126.387
  206          65.592          65.592          67.849          67.849          74.444          74.444          74.626          74.626          88.431          88.431          95.917          95.917          99.199          99.199         103.668         103.668         104.212         104.212         106.708         106.708         114.987         114.987         126.422         126.422
  207          65.580          65.580          67.729          67.729          74.439          74.439          74.714          74.714          88.375          88.375          95.879          95.879          99.262          99.262         103.713         103.713         104.217         104.217         106.728         106.728         114.924         114.924         126.462         126.462
  208          65.566          65.566          67.599          67.599          74.434          74.434          74.808          74.808          88.314          88.314          95.838          95.838          99.331          99.331         103.764         103.764         104.222         104.222         106.749         106.749         114.853         114.853         126.506         126.506
  209          65.552          65.552          67.460          67.460          74.428          74.428          74.907          74.907          88.248          88.248          95.793          95.793          99.405          99.405         103.819         103.819         104.229         104.229         106.772         106.772         114.777         114.777         126.553         126.553
  210          65.536          65.536          67.312          67.312          74.421          74.421          75.012          75.012          88.177          88.177          95.745          95.745          99.484          99.484         103.878         103.878         104.238         104.238         106.796         106.796         114.695         114.695         126.604         126.604
  211          65.519          65.519          67.157          67.157          74.414          74.414          75.121          75.121          88.102          88.102          95.693          95.693          99.566          99.566         103.941         103.941         104.248         104.248         106.822         106.822         114.607         114.607         126.658         126.658
  212          65.500          65.500          66.995          66.995          74.407          74.407          75.233          75.233          88.023          88.023          95.639          95.639          99.653          99.653         104.008         104.008         104.261         104.261         106.850         106.850         114.514         114.514         126.715         126.715
  213          65.480          65.480          66.827          66.827          74.399          74.399          75.347          75.347          87.939          87.939          95.582          95.582          99.742          99.742         104.079         104.079         104.275         104.275         106.879         106.879         114.417         114.417         126.775         126.775
  214          65.459          65.459          66.653          66.653          74.390          74.390          75.464          75.464          87.853          87.853          95.523          95.523          99.834          99.834         104.153         104.153         104.293         104.293         106.908         106.908         114.315         114.315         126.837         126.837
  215          65.436          65.436          66.474          66.474          74.381          74.381          75.583          75.583          87.763          87.763          95.461          95.461          99.928          99.928         104.230         104.230         104.313         104.313         106.939         106.939         114.209         114.209         126.901         126.901
  216          65.413          65.413          66.291          66.291          74.371          74.371          75.703          75.703          87.670          87.670          95.397          95.397         100.022         100.022         104.310         104.310         104.337         104.337         106.971         106.971         114.100         114.100         126.968         126.968
  217          65.388          65.388          66.104          66.104          74.361          74.361          75.824          75.824          87.575          87.575          95.332          95.332         100.117         100.117         104.364         104.364         104.393         104.393         107.003         107.003         113.988         113.988         127.036         127.036
  218          65.361          65.361          65.914          65.914          74.351          74.351          75.945          75.945          87.478          87.478          95.264          95.264         100.211         100.211         104.395         104.395         104.478         104.478         107.036         107.036         113.872         113.872         127.105         127.105
  219          65.334          65.334          65.720          65.720          74.340          74.340          76.066          76.066          87.379          87.379          95.195          95.195         100.304         100.304         104.430         104.430         104.566         104.566         107.069         107.069         113.755         113.755         127.176         127.176
  220          65.305          65.305          65.523          65.523          74.328          74.328          76.188          76.188          87.278          87.278          95.125          95.125         100.395         100.395         104.470         104.470         104.656         104.656         107.102         107.102         113.636         113.636         127.247         127.247
  221          65.276          65.276          65.325          65.325          74.317          74.317          76.309          76.309          87.175          87.175          95.054          95.054         100.484         100.484         104.515         104.515         104.747         104.747         107.136         107.136         113.515         113.515         127.320         127.320
  222          65.124          65.124          65.245          65.245          74.304          74.304          76.429          76.429          87.072          87.072          94.981          94.981         100.570         100.570         104.564         104.564         104.841         104.841         107.169         107.169         113.394         113.394         127.393         127.393
  223          64.921          64.921          65.213          65.213          74.292          74.292          76.549          76.549          86.967          86.967          94.908          94.908         100.652         100.652         104.619         104.619         104.936         104.936         107.202         107.202         113.272         113.272         127.467         127.467
  224          64.716          64.716          65.180          65.180          74.279          74.279          76.667          76.667          86.862          86.862          94.834          94.834         100.730         100.730         104.680         104.680         105.033         105.033         107.234         107.234         113.151         113.151         127.541         127.541
  225          64.511          64.511          65.146          65.146          74.265          74.265          76.784          76.784          86.756          86.756          94.760          94.760         100.803         100.803         104.746         104.746         105.130         105.130         107.266         107.266         113.030         113.030         127.615         127.615
  226          64.304          64.304          65.111          65.111          74.252          74.252          76.901          76.901          86.650          86.650          94.685          94.685         100.872         100.872         104.818         104.818         105.229         105.229         107.296         107.296         112.910         112.910         127.689         127.689
  227          64.097          64.097          65.075          65.075          74.238          74.238          77.015          77.015          86.544          86.544          94.610          94.610         100.934         100.934         104.895         104.895         105.329         105.329         107.326         107.326         112.791         112.791         127.763         127.763
  228          63.889          63.889          65.038          65.038          74.223          74.223          77.128          77.128          86.438          86.438          94.534          94.534         100.991         100.991         104.978         104.978         105.430         105.430         107.355         107.355         112.675         112.675         127.836         127.836
  229          63.680          63.680          65.000          65.000          74.208          74.208          77.240          77.240          86.332          86.332          94.459          94.459         101.042         101.042         105.066         105.066         105.531         105.531         107.382         107.382         112.561         112.561         127.909         127.909
  230          63.472          63.472          64.961          64.961          74.194          74.194          77.349          77.349          86.226          86.226          94.383          94.383         101.087         101.087         105.159         105.159         105.633         105.633         107.408         107.408         112.451         112.451         127.981         127.981
  231          63.263          63.263          64.921          64.921          74.178          74.178          77.457          77.457          86.121          86.121          94.308          94.308         101.125         101.125         105.256         105.256         105.736         105.736         107.433         107.433         112.345         112.345         128.052         128.052
  232          63.054          63.054          64.881          64.881          74.163          74.163          77.562          77.562          86.017          86.017          94.233          94.233         101.158         101.158         105.357         105.357         105.838         105.838         107.456         107.456         112.243         112.243         128.123         128.123
  233          62.846          62.846          64.839          64.839          74.147          74.147          77.666          77.666          85.913          85.913          94.158          94.158         101.184         101.184         105.462         105.462         105.941         105.941         107.477         107.477         112.145         112.145         128.193         128.193
  234          62.639          62.639          64.797          64.797          74.131          74.131          77.768          77.768          85.811          85.811          94.083          94.083         101.204         101.204         105.568         105.568         106.044         106.044         107.497         107.497         112.054         112.054         128.261         128.261
  235          62.432          62.432          64.754          64.754          74.115          74.115          77.867          77.867          85.709          85.709          94.009          94.009         101.218         101.218         105.677         105.677         106.147         106.147         107.515         107.515         111.968         111.968         128.329         128.329
  236          62.226          62.226          64.711          64.711          74.099          74.099          77.964          77.964          85.609          85.609          93.935          93.935         101.226         101.226         105.786         105.786         106.250         106.250         107.533         107.533         111.889         111.889         128.395         128.395
  237          62.020          62.020          64.667          64.667          74.083          74.083          78.059          78.059          85.510          85.510          93.862          93.862         101.228         101.228         105.895         105.895         106.353         106.353         107.550         107.550         111.816         111.816         128.460         128.460
  238          61.816          61.816          64.622          64.622          74.066          74.066          78.151          78.151          85.413          85.413          93.790          93.790         101.224         101.224         106.002         106.002         106.455         106.455         107.567         107.567         111.751         111.751         128.524         128.524
  239          61.614          61.614          64.577          64.577          74.050          74.050          78.241          78.241          85.317          85.317          93.718          93.718         101.215         101.215         106.105         106.105         106.558         106.558         107.586         107.586         111.694         111.694         128.586         128.586
  240          61.412          61.412          64.531          64.531          74.033          74.033          78.328          78.328          85.223          85.223          93.647          93.647         101.201         101.201         106.204         106.204         106.659         106.659         107.607         107.607         111.645         111.645         128.646         128.646
  241          61.212          61.212          64.485          64.485          74.016          74.016          78.413          78.413          85.130          85.130          93.577          93.577         101.182         101.182         106.295         106.295         106.760         106.760         107.632         107.632         111.604         111.604         128.706         128.706
  242          61.014          61.014          64.438          64.438          73.999          73.999          78.495          78.495          85.040          85.040          93.508          93.508         101.157         101.157         106.378         106.378         106.861         106.861         107.662         107.662         111.572         111.572         128.763         128.763
  243          60.817          60.817          64.391          64.391          73.983          73.983          78.575          78.575          84.951          84.951          93.440          93.440         101.127         101.127         106.450         106.450         106.961         106.961         107.700         107.700         111.548         111.548         128.819         128.819
  244          60.623          60.623          64.343          64.343          73.966          73.966          78.652          78.652          84.865          84.865          93.372          93.372         101.092         101.092         106.510         106.510         107.060         107.060         107.745         107.745         111.533         111.533         128.874         128.874
  245          60.430          60.430          64.295          64.295          73.949          73.949          78.726          78.726          84.780          84.780          93.306          93.306         101.053         101.053         106.557         106.557         107.158         107.158         107.801         107.801         111.526         111.526         128.926         128.926
  246          60.239          60.239          64.247          64.247          73.932          73.932          78.798          78.798          84.698          84.698          93.240          93.240         101.009         101.009         106.590         106.590         107.256         107.256         107.865         107.865         111.528         111.528         128.977         128.977
  247          60.051          60.051          64.199          64.199          73.915          73.915          78.867          78.867          84.618          84.618          93.175          93.175         100.960         100.960         106.611         106.611         107.352         107.352         107.938         107.938         111.538         111.538         129.027         129.027
  248          59.865          59.865          64.150          64.150          73.899          73.899          78.933          78.933          84.541          84.541          93.112          93.112         100.907         100.907         106.621         106.621         107.448         107.448         108.019         108.019         111.556         111.556         129.074         129.074
  249          59.681          59.681          64.102          64.102          73.882          73.882          78.996          78.996          84.466          84.466          93.049          93.049         100.850         100.850         106.621         106.621         107.542         107.542         108.105         108.105         111.582         111.582         129.120         129.120
  250          59.500          59.500          64.053          64.053          73.866          73.866          79.056          79.056          84.393          84.393          92.988          92.988         100.788         100.788         106.613         106.613         107.635         107.635         108.195         108.195         111.615         111.615         129.164         129.164
  251          59.321          59.321          64.005          64.005          73.850          73.850          79.114          79.114          84.323          84.323          92.928          92.928         100.723         100.723         106.598         106.598         107.727         107.727         108.288         108.288         111.656         111.656         129.206         129.206
  252          59.145          59.145          63.956          63.956          73.833          73.833          79.168          79.168          84.256          84.256          92.869          92.869         100.654         100.654         106.579         106.579         107.818         107.818         108.382         108.382         111.704         111.704         129.247         129.247
  253          58.972          58.972          63.907          63.907          73.817          73.817          79.220          79.220          84.191          84.191          92.811          92.811         100.581         100.581         106.557         106.557         107.908         107.908         108.477         108.477         111.758         111.758         129.286         129.286
  254          58.802          58.802          63.859          63.859          73.802          73.802          79.269          79.269          84.129          84.129          92.754          92.754         100.504         100.504         106.532         106.532         107.996         107.996         108.571         108.571         111.819         111.819         129.323         129.323
  255          58.634          58.634          63.811          63.811          73.786          73.786          79.314          79.314          84.070          84.070          92.698          92.698         100.425         100.425         106.505         106.505         108.083         108.083         108.663         108.663         111.885         111.885         129.358         129.358
  256          58.470          58.470          63.763          63.763          73.770          73.770          79.358          79.358          84.013          84.013          92.644          92.644         100.342         100.342         106.477         106.477         108.169         108.169         108.754         108.754         111.956         111.956         129.392         129.392
  257          58.309          58.309          63.715          63.715          73.755          73.755          79.398          79.398          83.960          83.960          92.591          92.591         100.257         100.257         106.448         106.448         108.253         108.253         108.842         108.842         112.033         112.033         129.424         129.424
  258          58.150          58.150          63.667          63.667          73.740          73.740          79.435          79.435          83.909          83.909          92.539          92.539         100.168         100.168         106.420         106.420         108.335         108.335         108.928         108.928         112.114         112.114         129.454         129.454
  259          57.995          57.995          63.620          63.620          73.725          73.725          79.470          79.470          83.860          83.860          92.488          92.488         100.078         100.078         106.392         106.392         108.416         108.416         109.011         109.011         112.199         112.199         129.483         129.483
  260          57.844          57.844          63.574          63.574          73.711          73.711          79.501          79.501          83.815          83.815          92.439          92.439          99.986          99.986         106.365         106.365         108.496         108.496         109.091         109.091         112.288         112.288         129.510         129.510
  261          57.695          57.695          63.527          63.527          73.697          73.697          79.530          79.530          83.773          83.773          92.390          92.390          99.892          99.892         106.339         106.339         108.574         108.574         109.169         109.169         112.379         112.379         129.536         129.536
  262          57.551          57.551          63.482          63.482          73.683          73.683          79.557          79.557          83.733          83.733          92.343          92.343          99.796          99.796         106.313         106.313         108.650         108.650         109.243         109.243         112.474         112.474         129.560         129.560
  263          57.409          57.409          63.437          63.437          73.669          73.669          79.581          79.581          83.695          83.695          92.297          92.297          99.699          99.699         106.289         106.289         108.724         108.724         109.314         109.314         112.571         112.571         129.582         129.582
  264          57.271          57.271          63.392          63.392          73.656          73.656          79.602          79.602          83.661          83.661          92.253          92.253          99.601          99.601         106.267         106.267         108.797         108.797         109.382         109.382         112.669         112.669         129.603         129.603
  265          57.137          57.137          63.348          63.348          73.643          73.643          79.622          79.622          83.629          83.629          92.210          92.210          99.503          99.503         106.245         106.245         108.868         108.868         109.447         109.447         112.769         112.769         129.623         129.623
  266          57.006          57.006          63.305          63.305          73.630          73.630          79.638          79.638          83.599          83.599          92.168          92.168          99.404          99.404         106.225         106.225         108.937         108.937         109.510         109.510         112.869         112.869         129.641         129.641
  267          56.879          56.879          63.263          63.263          73.618          73.618          79.653          79.653          83.572          83.572          92.127          92.127          99.305          99.305         106.207         106.207         109.005         109.005         109.570         109.570         112.971         112.971         129.657         129.657
  268          56.756          56.756          63.221          63.221          73.606          73.606          79.666          79.666          83.547          83.547          92.088          92.088          99.206          99.206         106.189         106.189         109.070         109.070         109.627         109.627         113.072         113.072         129.673         129.673
  269          56.636          56.636          63.181          63.181          73.594          73.594          79.676          79.676          83.524          83.524          92.049          92.049          99.108          99.108         106.174         106.174         109.134         109.134         109.681         109.681         113.173         113.173         129.687         129.687
  270          56.520          56.520          63.141          63.141          73.583          73.583          79.685          79.685          83.503          83.503          92.013          92.013          99.011          99.011         106.159         106.159         109.195         109.195         109.733         109.733         113.274         113.274         129.700         129.700
  271          56.408          56.408          63.102          63.102          73.572          73.572          79.692          79.692          83.485          83.485          91.977          91.977          98.914          98.914         106.146         106.146         109.255         109.255         109.783         109.783         113.374         113.374         129.712         129.712
  272          56.300          56.300          63.064          63.064          73.561          73.561          79.698          79.698          83.468          83.468          91.943          91.943          98.819          98.819         106.133         106.133         109.313         109.313         109.830         109.830         113.472         113.472         129.723         129.723
  273          56.195          56.195          63.027          63.027          73.551          73.551          79.702          79.702          83.453          83.453          91.910          91.910          98.725          98.725         106.122         106.122         109.369         109.369         109.875         109.875         113.569         113.569         129.733         129.733
  274          56.095          56.095          62.992          62.992          73.541          73.541          79.705          79.705          83.439          83.439          91.878          91.878          98.633          98.633         106.112         106.112         109.423         109.423         109.918         109.918         113.664         113.664         129.741         129.741
  275          55.999          55.999          62.957          62.957          73.531          73.531          79.706          79.706          83.428          83.428          91.848          91.848          98.543          98.543         106.104         106.104         109.475         109.475         109.959         109.959         113.758         113.758         129.749         129.749
  276          55.906          55.906          62.924          62.924          73.522          73.522          79.707          79.707          83.417          83.417          91.819          91.819          98.455          98.455         106.096         106.096         109.524         109.524         109.997         109.997         113.848         113.848         129.756         129.756
  277          55.818          55.818          62.891          62.891          73.514          73.514          79.707          79.707          83.408          83.408          91.791          91.791          98.370          98.370         106.088         106.088         109.572         109.572         110.034         110.034         113.937         113.937         129.762         129.762
  278          55.733          55.733          62.860          62.860          73.505          73.505          79.706          79.706          83.400          83.400          91.764          91.764          98.287          98.287         106.082         106.082         109.618         109.618         110.069         110.069         114.023         114.023         129.767         129.767
  279          55.652          55.652          62.831          62.831          73.497          73.497          79.704          79.704          83.393          83.393          91.739          91.739          98.207          98.207         106.077         106.077         109.661         109.661         110.102         110.102         114.105         114.105         129.772         129.772
  280          55.576          55.576          62.802          62.802          73.490          73.490          79.702          79.702          83.387          83.387          91.715          91.715          98.130          98.130         106.072         106.072         109.702         109.702         110.133         110.133         114.185         114.185         129.776         129.776
  281          55.504          55.504          62.775          62.775          73.483          73.483          79.699          79.699          83.382          83.382          91.692          91.692          98.056          98.056         106.067         106.067         109.742         109.742         110.162         110.162         114.261         114.261         129.779         129.779
  282          55.435          55.435          62.749          62.749          73.476          73.476          79.696          79.696          83.378          83.378          91.671          91.671          97.986          97.986         106.064         106.064         109.779         109.779         110.189         110.189         114.334         114.334         129.782         129.782
  283          55.371          55.371          62.725          62.725          73.470          73.470          79.692          79.692          83.374          83.374          91.651          91.651          97.919          97.919         106.060         106.060         109.813         109.813         110.215         110.215         114.403         114.403         129.785         129.785
  284          55.311          55.311          62.702          62.702          73.464          73.464          79.689          79.689          83.371          83.371          91.632          91.632          97.856          97.856         106.058         106.058         109.846         109.846         110.239         110.239         114.468         114.468         129.787         129.787
  285          55.255          55.255          62.681          62.681          73.458          73.458          79.685          79.685          83.368          83.368          91.615          91.615          97.796          97.796         106.055         106.055         109.877         109.877         110.261         110.261         114.530         114.530         129.788         129.788
  286          55.203          55.203          62.661          62.661          73.453          73.453          79.681          79.681          83.366          83.366          91.599          91.599          97.740          97.740         106.053         106.053         109.905         109.905         110.281         110.281         114.587         114.587         129.790         129.790
  287          55.155          55.155          62.642          62.642          73.448          73.448          79.677          79.677          83.365          83.365          91.584          91.584          97.689          97.689         106.052         106.052         109.931         109.931         110.300         110.300         114.640         114.640         129.790         129.790
  288          55.111          55.111          62.625          62.625          73.444          73.444          79.674          79.674          83.363          83.363          91.570          91.570          97.641          97.641         106.050         106.050         109.955         109.955         110.317         110.317         114.689         114.689         129.791         129.791
  289          55.072          55.072          62.610          62.610          73.440          73.440          79.670          79.670          83.362          83.362          91.558          91.558          97.598          97.598         106.049         106.049         109.976         109.976         110.332         110.332         114.734         114.734         129.792         129.792
  290          55.037          55.037          62.596          62.596          73.437          73.437          79.667          79.667          83.362          83.362          91.547          91.547          97.559          97.559         106.048         106.048         109.996         109.996         110.346         110.346         114.774         114.774         129.792         129.792
  291          55.005          55.005          62.584          62.584          73.434          73.434          79.664          79.664          83.361          83.361          91.537          91.537          97.525          97.525         106.048         106.048         110.013         110.013         110.358         110.358         114.809         114.809         129.792         129.792
  292          54.978          54.978          62.573          62.573          73.431          73.431          79.662          79.662          83.361          83.361          91.529          91.529          97.494          97.494         106.047         106.047         110.028         110.028         110.369         110.369         114.840         114.840         129.792         129.792
  293          54.955          54.955          62.564          62.564          73.429          73.429          79.659          79.659          83.360          83.360          91.522          91.522          97.469          97.469         106.047         106.047         110.040         110.040         110.377         110.377         114.867         114.867         129.793         129.793
  294          54.937          54.937          62.557          62.557          73.427          73.427          79.657          79.657          83.360          83.360          91.516          91.516          97.448          97.448         106.046         106.046         110.050         110.050         110.385         110.385         114.888         114.888         129.793         129.793
  295          54.922          54.922          62.551          62.551          73.425          73.425          79.656          79.656          83.360          83.360          91.511          91.511          97.432          97.432         106.046         106.046         110.058         110.058         110.390         110.390         114.905         114.905         129.793         129.793
  296          54.912          54.912          62.547          62.547          73.424          73.424          79.655          79.655          83.360          83.360          91.508          91.508          97.420          97.420         106.046         106.046         110.064         110.064         110.394         110.394         114.917         114.917         129.793         129.793
  297          54.905          54.905          62.545          62.545          73.424          73.424          79.654          79.654          83.360          83.360          91.506          91.506          97.413          97.413         106.046         106.046         110.068         110.068         110.397         110.397         114.924         114.924         129.793         129.793
  298          54.903          54.903          62.544          62.544          73.423          73.423          79.654          79.654          83.360          83.360          91.506          91.506          97.410          97.410         106.046         106.046         110.069         110.069         110.398         110.398         114.927         114.927         129.793         129.793
  299          54.467          55.332          62.042          63.042          73.409          73.438          79.309          79.980          82.827          83.901          91.456          91.555          97.365          97.455         106.040         106.055         110.033         110.104         110.366         110.433         114.816         115.038         129.780         129.803
  300          54.024          55.754          61.535          63.535          73.394          73.453          78.942          80.289          82.305          84.448          91.406          91.604          97.320          97.499         106.039         106.068         109.998         110.141         110.337         110.471         114.707         115.151         129.767         129.812
  301          53.575          56.167          61.024          64.024          73.379          73.467          78.554          80.581          81.795          84.999          91.357          91.653          97.276          97.541         106.043         106.085         109.963         110.177         110.312         110.512         114.599         115.264         129.752         129.819
  302          53.119          56.572          60.509          64.508          73.364          73.482          78.142          80.857          81.300          85.552          91.307          91.702          97.232          97.581         106.051         106.105         109.929         110.214         110.290         110.555         114.493         115.377         129.735         129.825
  303          52.658          56.968          59.989          64.988          73.349          73.497          77.707          80.821          81.120          86.106          91.257          91.751          97.190          97.620         106.064         106.128         109.895         110.250         110.272         110.600         114.390         115.491         129.716         129.829
  304          52.191          57.353          59.466          65.463          73.334          73.513          77.248          80.358          81.369          86.660          91.208          91.800          97.150          97.655         106.081         106.154         109.861         110.258         110.288         110.647         114.289         115.605         129.697         129.832
  305          51.719          57.728          58.938          65.932          73.318          73.528          76.767          79.912          81.605          87.211          91.158          91.848          97.112          97.687         106.105         106.183         109.828         110.248         110.325         110.695         114.191         115.719         129.675         129.833
  306          51.242          58.091          58.406          66.397          73.303          73.545          76.266          79.482          81.828          87.761          91.109          91.896          97.077          97.716         106.133         106.214         109.795         110.241         110.362         110.743         114.097         115.833         129.652         129.832
  307          50.760          57.871          58.440          66.856          73.287          73.562          75.747          79.066          82.040          88.306          91.059          91.944          97.045          97.741         106.167         106.248         109.762         110.239         110.400         110.791         114.008         115.947         129.628         129.830
  308          50.273          57.331          58.775          67.309          73.271          73.580          75.215          78.663          82.240          88.848          91.010          91.991          97.017          97.762         106.206         106.285         109.730         110.241         110.438         110.838         113.924         116.061         129.602         129.826
  309          49.782          56.788          59.093          67.756          73.254          73.599          74.672          78.271          82.429          89.384          90.961          92.038          96.993          97.779         106.251         106.323         109.699         110.246         110.476         110.883         113.846         116.174         129.574         129.821
  310          49.286          56.240          59.393          68.198          73.238          73.620          74.124          77.889          82.607          89.914          90.911          92.084          96.973          97.791         106.301         106.364         109.667         110.256         110.514         110.926         113.776         116.287         129.545         129.815
  311          48.786          55.689          59.672          68.632          73.221          73.573          73.642          77.514          82.774          90.439          90.862          92.131          96.958          97.799         106.357         106.407         109.637         110.269         110.553         110.964         113.714         116.400         129.515         129.806
  312          48.282          55.134          59.927          69.059          73.023          73.204          73.668          77.147          82.930          90.814          90.956          92.176          96.948          97.803         106.417         106.451         109.607         110.287         110.591         110.997         113.662         116.513         129.483         129.797
  313          47.774          54.575          60.154          69.478          72.481          73.187          73.697          76.786          83.076          90.765          91.467          92.221          96.943          97.802         106.483         106.498         109.577         110.308         110.629         111.024         113.620         116.625         129.450         129.786
  314          47.262          54.013          60.350          69.887          71.950          73.169          73.731          76.432          83.212          90.717          91.969          92.266          96.943          97.796         106.546         106.554         109.548         110.333         110.668         111.044         113.591         116.736         129.416         129.773
  315          46.747          53.447          60.508          70.285          71.435          73.152          73.771          76.083          83.338          90.669          92.310          92.463          96.949          97.786         106.596         106.630         109.519         110.363         110.707         111.056         113.574         116.847         129.380         129.759
  316          46.228          52.877          60.624          70.671          70.943          73.134          73.819          75.741          83.455          90.621          92.354          92.947          96.961          97.772         106.648         106.709         109.491         110.396         110.745         111.058         113.571         116.958         129.343         129.744
  317          45.705          52.304          60.691          70.479          71.040          73.116          73.878          75.406          83.562          90.573          92.397          93.422          96.978          97.753         106.701         106.793         109.463         110.433         110.784         111.052         113.581         117.068         129.304         129.727
  318          45.179          51.727          60.703          70.049          71.390          73.098          73.952          75.078          83.660          90.526          92.439          93.887          97.003          97.731         106.756         106.881         109.436         110.474         110.823         111.037         113.606         117.177         129.265         129.709
  319          44.650          51.147          60.653          69.659          71.715          73.079          74.046          74.760          83.749          90.479          92.481          94.339          97.034          97.705         106.812         106.972         109.409         110.519         110.861         111.013         113.644         117.286         129.224         129.690
  320          44.117          50.563          60.535          69.311          72.008          73.060          74.167          74.453          83.829          90.432          92.522          94.779          97.073          97.675         106.869         107.067         109.383         110.567         110.900         110.982         113.696         117.394         129.182         129.669
  321          43.582          49.976          60.347          69.008          72.265          73.041          74.159          74.320          83.902          90.386          92.562          95.203          97.122          97.642         106.928         107.164         109.358         110.619         110.939         110.944         113.760         117.502         129.138         129.647
  322          43.044          49.385          60.088          68.748          72.481          73.022          73.881          74.509          83.967          90.340          92.602          95.608          97.185          97.605         106.988         107.263         109.333         110.675         110.901         110.977         113.835         117.609         129.094         129.624
  323          42.502          48.791          59.760          68.526          72.655          73.003          73.621          74.734          84.024          90.294          92.640          95.986          97.266          97.566         107.049         107.365         109.309         110.734         110.854         111.016         113.920         117.716         129.049         129.599
  324          41.958          48.194          59.366          68.334          72.791          72.984          73.385          74.993          84.075          90.249          92.678          96.327          97.378          97.525         107.110         107.468         109.285         110.797         110.804         111.054         114.015         117.822         129.002         129.574
  325          41.411          47.593          58.913          68.163          72.897          72.964          73.175          75.277          84.119          90.204          92.715          96.613          97.480          97.538         107.172         107.572         109.262         110.753         110.864         111.093         114.118         117.928         128.955         129.547
  326          40.862          46.990          58.408          68.002          72.945          72.978          72.995          75.581          84.156          90.160          92.751          96.830          97.434          97.757         107.233         107.678         109.239         110.702         110.933         111.131         114.229         118.033         128.906         129.519
  327          40.310          46.383          57.857          67.841          72.849          72.925          73.041          75.899          84.188          90.116          92.787          96.985          97.386          98.028         107.294         107.784         109.217         110.652         111.006         111.169         114.347         118.138         128.857         129.490
  328          39.755          45.772          57.267          67.673          72.739          72.905          73.090          76.225          84.215          90.072          92.821          97.100          97.337          98.331         107.355         107.891         109.196         110.605         111.082         111.207         114.472         118.242         128.807         129.461
  329          39.199          45.159          56.644          67.488          72.666          72.885          73.129          76.557          84.237          90.029          92.854          97.191          97.286          98.646         107.413         107.998         109.175         110.561         111.161         111.245         114.602         118.346         128.756         129.430
  330          38.639          44.543          55.992          67.285          72.631          72.865          73.160          76.892          84.254          89.986          92.886          97.234          97.270          98.963         107.470         108.104         109.155         110.523         111.243         111.282         114.737         118.449         128.704         129.398
  331          38.078          43.924          55.315          67.060          72.631          72.845          73.186          77.228          84.268          89.944          92.918          97.181          97.342          99.276         107.523         108.211         109.136         110.491         111.320         111.327         114.877         118.552         128.652         129.365
  332          37.515          43.301          54.618          66.813          72.663          72.825          73.206          77.563          84.277          89.903          92.948          97.128          97.408          99.582         107.573         108.317         109.117         110.465         111.357         111.414         115.022         118.654         128.599         129.331
  333          36.949          42.676          53.903          66.545          72.724          72.804          73.223          77.898          84.284          89.861          92.977          97.074          97.470          99.879         107.619         108.422         109.099         110.449         111.394         111.503         115.171         118.756         128.545         129.297
  334          36.382          42.048          53.171          66.259          72.784          72.809          73.237          78.231          84.287          89.820          93.005          97.019          97.530         100.166         107.659         108.526         109.081         110.441         111.431         111.594         115.324         118.857         128.491         129.262
  335          35.812          41.417          52.426          65.956          72.764          72.915          73.248          78.561          84.288          89.780          93.032          96.965          97.587         100.443         107.694         108.630         109.064         110.443         111.467         111.687         115.481         118.959         128.436         129.226
  336          35.241          40.783          51.669          65.638          72.743          73.038          73.258          78.889          84.287          89.740          93.057          96.911          97.641         100.710         107.723         108.732         109.047         110.456         111.503         111.781         115.641         119.059         128.381         129.189
  337          34.668          40.146          50.901          65.308          72.723          73.176          73.265          79.213          84.284          89.701          93.081          96.858          97.693         100.966         107.745         108.833         109.032         110.480         111.539         111.877         115.804         119.160         128.325         129.152
  338          34.093          39.507          50.123          64.968          72.703          73.272          73.324          79.535          84.279          89.663          93.104          96.804          97.742         101.211         107.760         108.934         109.016         110.515         111.575         111.973         115.971         119.260         128.269         129.114
  339          33.516          38.865          49.337          64.620          72.682          73.277          73.481          79.852          84.273          89.624          93.126          96.752          97.787         101.445         107.770         109.002         109.033         110.560         111.610         112.071         116.140         119.360         128.212         129.075
  340          32.938          38.220          48.542          64.264          72.662          73.281          73.644          80.167          84.266          89.587          93.147          96.700          97.829         101.669         107.773         108.988         109.131         110.615         111.645         112.169         116.312         119.459         128.156         129.036
  341          32.358          37.573          47.740          63.903          72.642          73.284          73.812          80.477          84.258          89.550          93.166          96.649          97.868         101.884         107.771         108.974         109.227         110.680         111.680         112.267         116.487         119.558         128.099         128.996
  342          31.777          36.923          46.931          63.537          72.622          73.286          73.984          80.783          84.250          89.513          93.183          96.599          97.903         102.088         107.764         108.961         109.323         110.753         111.714         112.365         116.664         119.657         128.042         128.956
  343          31.195          36.270          46.117          63.167          72.602          73.287          74.158          81.086          84.242          89.477          93.199          96.550          97.933         102.284         107.753         108.949         109.417         110.833         111.748         112.463         116.844         119.756         127.984         128.916
  344          30.611          35.615          45.296          62.795          72.582          73.288          74.333          81.384          84.233          89.442          93.214          96.502          97.960         102.470         107.738         108.938         109.510         110.919         111.781         112.561         117.026         119.854         127.927         128.876
  345          30.026          34.958          44.470          62.421          72.562          73.288          74.508          81.679          84.225          89.407          93.228          96.456          97.982         102.649         107.721         108.926         109.602         111.011         111.814         112.657         117.209         119.952         127.870         128.835
  346          29.439          34.298          43.639          62.046          72.542          73.288          74.682          81.969          84.217          89.373          93.239          96.411          98.000         102.819         107.702         108.916         109.693         111.108         111.847         112.753         117.394         120.049         127.813         128.793
  347          28.852          33.636          42.803          61.669          72.522          73.287          74.856          82.255          84.209          89.340          93.250          96.367          98.013         102.982         107.682         108.906         109.782         111.207         111.879         112.847         117.581         120.146         127.755         128.752
  348          28.263          32.972          41.963          61.293          72.503          73.286          75.028          82.537          84.202          89.307          93.258          96.325          98.022         103.138         107.660         108.896         109.871         111.309         111.911         112.940         117.769         120.243         127.698         128.711
  349          27.673          32.305          41.119          60.918          72.484          73.285          75.198          82.815          84.196          89.274          93.265          96.284          98.026         103.287         107.639         108.887         109.959         111.413         111.942         113.032         117.958         120.339         127.641         128.669
  350          27.082          31.636          40.271          60.543          72.464          73.283          75.365          83.089          84.190          89.243          93.271          96.246          98.025         103.431         107.617         108.879         110.045         111.517         111.973         113.122         118.148         120.435         127.584         128.627
  351          26.491          30.965          39.419          60.169          72.445          73.281          75.530          83.358          84.186          89.212          93.274          96.208          98.019         103.568         107.596         108.871         110.131         111.622         112.003         113.209         118.339         120.530         127.528         128.586
  352          25.898          30.292          38.564          59.797          72.427          73.278          75.692          83.623          84.183          89.181          93.276          96.173          98.009         103.701         107.575         108.864         110.215         111.726         112.033         113.295         118.529         120.624         127.471         128.544
  353          25.304          29.616          37.705          59.428          72.408          73.276          75.850          83.884          84.180          89.151          93.277          96.139          97.994         103.829         107.556         108.857         110.298         111.830         112.062         113.378         118.721         120.718         127.415         128.503
  354          24.710          28.939          36.843          59.061          72.390          73.273          76.005          84.141          84.179          89.122          93.275          96.107          97.974         103.952         107.537         108.850         110.381         111.932         112.091         113.459         118.912         120.812         127.359         128.462
  355          24.115          28.260          35.978          58.697          72.372          73.270          76.156          84.180          84.393          89.094          93.272          96.076          97.950         104.071         107.519         108.844         110.462         112.033         112.120         113.538         119.102         120.904         127.304         128.421
  356          23.519          27.578          35.111          58.336          72.354          73.267          76.304          84.181          84.641          89.066          93.267          96.047          97.922         104.186         107.503         108.839         110.543         112.132         112.147         113.614         119.292         120.996         127.249         128.380
  357          22.922          26.895          34.240          57.979          72.337          73.264          76.447          84.184          84.886          89.039          93.260          96.020          97.889         104.298         107.487         108.833         110.622         112.175         112.228         113.687         119.482         121.087         127.194         128.340
  358          22.325          26.210          33.367          57.626          72.319          73.260          76.587          84.188          85.125          89.012          93.251          95.995          97.853         104.406         107.473         108.829         110.701         112.201         112.322         113.758         119.670         121.177         127.140         128.300
  359          21.727          25.523          32.491          57.278          72.303          73.257          76.722          84.193          85.361          88.986          93.241          95.971          97.812         104.511         107.460         108.824         110.778         112.227         112.413         113.825         119.857         121.266         127.086         128.260
  360          21.128          24.835          31.613          56.934          72.286          73.253          76.854          84.200          85.593          88.961          93.228          95.949          97.769         104.613         107.448         108.821         110.855         112.253         112.502         113.890         120.043         121.354         127.033         128.221
  361          20.529          24.145          30.733          56.595          72.270          73.249          76.981          84.208          85.820          88.936          93.214          95.928          97.722         104.713         107.437         108.817         110.930         112.278         112.587         113.953         120.226         121.441         126.980         128.182
  362          19.929          23.453          29.850          56.261          72.254          73.246          77.104          84.217          86.043          88.913          93.197          95.909          97.672         104.810         107.427         108.814         111.004         112.302         112.669         114.012         120.408         121.527         126.927         128.144
  363          19.329          22.759          28.966          55.934          72.238          73.242          77.223          84.227          86.262          88.889          93.179          95.892          97.619         104.905         107.418         108.811         111.078         112.326         112.749         114.069         120.588         121.611         126.875         128.107
  364          18.729          22.064          28.079          55.612          72.223          73.238          77.338          84.239          86.477          88.867          93.158          95.875          97.564         104.997         107.409         108.808         111.150         112.349         112.825         114.122         120.765         121.694         126.823         128.070
  365          18.127          21.367          27.190          55.296          72.208          73.234          77.449          84.252          86.688          88.845          93.136          95.861          97.507         105.087         107.401         108.806         111.221         112.371         112.898         114.173         120.940         121.775         126.772         128.034
  366          17.526          20.669          26.300          54.988          72.193          73.231          77.555          84.266          86.895          88.824          93.111          95.848          97.448         105.175         107.394         108.804         111.290         112.393         112.968         114.221         121.112         121.855         126.722         127.999
  367          16.924          19.970          25.408          54.686          72.179          73.227          77.657          84.281          87.097          88.803          93.084          95.836          97.388         105.262         107.387         108.802         111.359         112.414         113.034         114.266         121.282         121.933         126.671         127.964
  368          16.322          19.269          24.514          54.391          72.166          73.223          77.755          84.296          87.296          88.784          93.055          95.825          97.326         105.346         107.380         108.801         111.426         112.434         113.098         114.309         121.448         122.009         126.621         127.930
  369          15.720          18.566          23.619          54.104          72.152          73.219          77.849          84.313          87.491          88.765          93.024          95.815          97.263         105.428         107.374         108.800         111.491         112.454         113.158         114.349         121.611         122.083         126.572         127.897
  370          15.117          17.863          22.722          53.825          72.139          73.216          77.939          84.330          87.682          88.746          92.991          95.807          97.200         105.508         107.367         108.799         111.555         112.473         113.216         114.386         121.771         122.156         126.523         127.866
  371          14.514          17.158          21.824          53.554          72.127          73.212          78.025          84.348          87.868          88.729          92.955          95.799          97.136         105.587         107.361         108.798         111.618         112.492         113.270         114.420         121.927         122.226         126.474         127.834
  372          13.911          16.452          20.924          53.292          72.115          73.209          78.107          84.367          88.051          88.712          92.917          95.793          97.072         105.663         107.354         108.797         111.679         112.509         113.321         114.452         122.080         122.294         126.426         127.804
  373          13.307          15.745          20.023          53.038          72.103          73.205          78.185          84.386          88.230          88.695          92.877          95.788          97.008         105.738         107.347         108.797         111.739         112.526         113.370         114.482         122.229         122.360         126.378         127.775
  374          12.703          15.037          19.121          52.793          72.092          73.202          78.259          84.405          88.405          88.680          92.835          95.783          96.945         105.812         107.339         108.796         111.796         112.543         113.416         114.509         122.374         122.424         126.330         127.747
  375          12.099          14.327          18.218          52.558          72.082          73.199          78.329          84.424          88.576          88.665          92.790          95.779          96.883         105.883         107.331         108.796         111.852         112.558         113.458         114.535         122.485         122.515         126.282         127.720
  376          11.495          13.617          17.314          52.332          72.071          73.196          78.395          84.444          88.651          88.743          92.743          95.776          96.822         105.952         107.323         108.796         111.906         112.573         113.499         114.558         122.543         122.652         126.235         127.695
  377          10.891          12.906          16.408          52.116          72.062          73.193          78.458          84.464          88.637          88.907          92.694          95.773          96.762         106.020         107.313         108.796         111.959         112.587         113.536         114.578         122.600         122.785         126.188         127.670
  378          10.287          12.194          15.502          51.911          72.053          73.190          78.516          84.483          88.625          89.066          92.643          95.771          96.703         106.086         107.303         108.796         112.009         112.601         113.571         114.597         122.653         122.914         126.141         127.646
  379           9.682          11.481          14.595          51.715          72.044          73.187          78.572          84.502          88.613          89.222          92.589          95.770          96.647         106.150         107.292         108.796         112.056         112.613         113.604         114.614         122.704         123.038         126.095         127.624
  380           9.078          10.767          13.686          51.530          72.036          73.184          78.623          84.521          88.601          89.373          92.533          95.769          96.592         106.213         107.280         108.797         112.102         112.625         113.634         114.630         122.752         123.157         126.049         127.603
  381           8.473          10.053          12.777          51.356          72.028          73.182          78.671          84.539          88.591          89.521          92.474          95.768          96.540         106.274         107.267         108.797         112.145         112.636         113.662         114.643         122.798         123.272         126.003         127.583
  382           7.868           9.338          11.868          51.193          72.021          73.180          78.715          84.557          88.581          89.665          92.413          95.768          96.491         106.332         107.253         108.797         112.186         112.647         113.687         114.655         122.840         123.382         125.958         127.565
  383           7.263           8.622          10.957          51.041          72.014          73.177          78.756          84.574          88.572          89.805          92.350          95.767          96.444         106.389         107.238         108.797         112.225         112.657         113.711         114.666         122.880         123.487         125.914         127.547
  384           6.658           7.906          10.047          50.901          72.008          73.175          78.794          84.590          88.564          89.941          92.285          95.768          96.400         106.445         107.221         108.798         112.261         112.666         113.732         114.675         122.916         123.587         125.870         127.532
  385           6.053           7.189           9.135          50.772          72.002          73.173          78.828          84.605          88.556          90.073          92.218          95.768          96.359         106.498         107.204         108.798         112.294         112.674         113.751         114.683         122.950         123.681         125.827         127.517
  386           5.448           6.471           8.223          50.655          71.997          73.172          78.859          84.619          88.549          90.201          92.149          95.768          96.322         106.549         107.185         108.799         112.324         112.681         113.768         114.690         122.980         123.769         125.786         127.504
  387           4.843           5.753           7.310          50.550          71.992          73.170          78.886          84.631          88.543          90.324          92.078          95.769          96.288         106.599         107.164         108.799         112.351         112.688         113.784         114.696         123.008         123.851         125.746         127.492
  388           4.237           5.035           6.398          50.456          71.988          73.169          78.910          84.643          88.537          90.442          92.006          95.769          96.257         106.647         107.142         108.799         112.375         112.694         113.797         114.701         123.032         123.926         125.708         127.481
  389           3.632           4.316           5.484          50.375          71.985          73.168          78.931          84.653          88.533          90.555          91.934          95.770          96.231         106.692         107.119         108.800         112.397         112.699         113.808         114.705         123.053         123.993         125.673         127.472
  390           3.027           3.597           4.571          50.307          71.982          73.167          78.949          84.662          88.529          90.661          91.861          95.770          96.208         106.736         107.094         108.800         112.415         112.703         113.818         114.708         123.071         124.052         125.641         127.464
  391           2.421           2.878           3.657          50.250          71.979          73.166          78.963          84.669          88.525          90.759          91.791          95.771          96.190         106.777         107.069         108.800         112.430         112.706         113.826         114.711         123.085         124.102         125.613         127.458
  392           1.816           2.159           2.743          50.207          71.977          73.165          78.974          84.675          88.523          90.846          91.725          95.771          96.175         106.816         107.042         108.800         112.441         112.709         113.832         114.713         123.097         124.142         125.591         127.453
  393           1.211           1.439           1.829          50.175          71.976          73.165          78.982          84.679          88.521          90.918          91.669          95.771          96.165         106.851         107.016         108.800         112.450         112.711         113.836         114.714         123.105         124.171         125.574         127.449
  394           0.605           0.720           0.914          50.156          71.975          73.165          78.987          84.681          88.520          90.966          91.630          95.771          96.158         106.880         106.992         108.800         112.455         112.712         113.839         114.715         123.110         124.189         125.563         127.447
  395           0.000           0.000           0.000          50.150          71.975          73.164          78.988          84.682          88.519          90.984          91.616          95.771          96.156         106.892         106.981         108.800         112.456         112.713         113.839         114.715         123.111         124.195         125.560         127.447
  396           0.679           0.709           0.969          50.156          71.978          73.167          78.992          84.683          88.522          90.984          91.611          95.773          96.156         106.898         106.985         108.796         112.456         112.708         113.843         114.718         123.111         124.200         125.560         127.447
  397           1.359           1.418           1.938          50.173          71.989          73.176          79.001          84.688          88.531          90.983          91.597          95.778          96.154         106.913         106.994         108.784         112.453         112.695         113.855         114.726         123.108         124.214         125.563         127.449
  398           2.038           2.127           2.907          50.202          72.006          73.191          79.017          84.695          88.546          90.982          91.574          95.787          96.151         106.938         107.009         108.764         112.449         112.673         113.875         114.738         123.104         124.237         125.566         127.452
  399           2.717           2.836           3.876          50.243          72.031          73.212          79.039          84.705          88.567          90.980          91.542          95.798          96.146         106.973         107.031         108.736         112.443         112.642         113.902         114.755         123.098         124.270         125.571         127.456
  400           3.396           3.545           4.844          50.295          72.063          73.238          79.068          84.718          88.594          90.979          91.501          95.813          96.141         107.017         107.058         108.701         112.436         112.604         113.937         114.776         123.090         124.311         125.578         127.461
  401           4.075           4.253           5.812          50.358          72.101          73.270          79.103          84.734          88.627          90.977          91.452          95.831          96.134         107.069         107.091         108.660         112.427         112.559         113.981         114.801         123.080         124.361         125.586         127.468
  402           4.754           4.962           6.779          50.433          72.146          73.308          79.144          84.752          88.666          90.975          91.395          95.853          96.125         107.128         107.129         108.614         112.417         112.507         114.032         114.828         123.069         124.420         125.595         127.475
  403           5.432           5.670           7.745          50.519          72.199          73.352          79.192          84.774          88.711          90.973          91.329          95.877          96.115         107.170         107.195         108.563         112.405         112.449         114.092         114.857         123.056         124.487         125.606         127.484
  404           6.111           6.378           8.711          50.616          72.258          73.401          79.245          84.797          88.762          90.971          91.256          95.905          96.104         107.216         107.265         108.512         112.385         112.392         114.161         114.888         123.041         124.562         125.618         127.495
  405           6.788           7.085           9.675          50.724          72.323          73.456          79.305          84.824          88.818          90.970          91.176          95.936          96.091         107.265         107.335         108.462         112.317         112.378         114.237         114.919         123.025         124.645         125.632         127.506
  406           7.466           7.793          10.639          50.843          72.396          73.517          79.371          84.853          88.880          90.969          91.090          95.970          96.077         107.317         107.400         108.421         112.244         112.362         114.323         114.951         123.007         124.735         125.647         127.519
  407           8.144           8.499          11.601          50.973          72.475          73.583          79.443          84.884          88.948          90.970          90.997          96.006          96.061         107.372         107.452         108.396         112.167         112.345         114.417         114.983         122.986         124.833         125.664         127.533
  408           8.820           9.206          12.563          51.113          72.560          73.655          79.521          84.918          89.022          90.898          90.971          96.044          96.046         107.428         107.479         108.397         112.087         112.327         114.519         115.014         122.964         124.937         125.682         127.548
  409           9.497           9.912          13.523          51.264          72.652          73.732          79.604          84.953          89.101          90.794          90.973          96.024          96.088         107.476         107.486         108.433         112.003         112.307         114.631         115.045         122.940         125.048         125.701         127.565
  410          10.173          10.617          14.481          51.425          72.751          73.814          79.694          84.991          89.185          90.685          90.976          96.003          96.133         107.438         107.545         108.506         111.917         112.287         114.752         115.074         122.914         125.164         125.723         127.583
  411          10.849          11.322          15.438          51.596          72.855          73.902          79.790          85.031          89.275          90.571          90.982          95.980          96.180         107.372         107.603         108.611         111.828         112.266         114.881         115.102         122.887         125.287         125.745         127.603
  412          11.524          12.026          16.394          51.777          72.966          73.994          79.891          85.072          89.370          90.454          90.989          95.955          96.229         107.283         107.662         108.741         111.736         112.244         115.020         115.127         122.857         125.415         125.770         127.624
  413          12.199          12.730          17.347          51.968          73.083          74.092          79.997          85.116          89.471          90.333          90.998          95.928          96.281         107.178         107.720         108.891         111.642         112.222         115.151         115.167         122.825         125.548         125.795         127.646
  414          12.873          13.433          18.299          52.168          73.205          74.194          80.110          85.161          89.576          90.209          91.009          95.899          96.335         107.060         107.777         109.057         111.546         112.199         115.172         115.323         122.792         125.685         125.823         127.670
  415          13.546          14.136          19.249          52.377          73.334          74.301          80.227          85.207          89.687          90.082          91.022          95.868          96.391         106.933         107.833         109.235         111.448         112.176         115.190         115.487         122.756         125.827         125.852         127.696
  416          14.219          14.837          20.197          52.595          73.468          74.413          80.351          85.255          89.803          89.953          91.038          95.834          96.448         106.799         107.887         109.425         111.348         112.153         115.206         115.660         122.718         125.882         125.973         127.722
  417          14.892          15.538          21.143          52.822          73.607          74.530          80.479          85.304          89.822          89.923          91.057          95.798          96.507         106.659         107.940         109.625         111.246         112.130         115.219         115.842         122.678         125.914         126.123         127.751
  418          15.563          16.238          22.086          53.057          73.752          74.651          80.612          85.353          89.690          90.048          91.079          95.760          96.567         106.513         107.991         109.833         111.143         112.107         115.228         116.031         122.637         125.948         126.276         127.780
  419          16.234          16.938          23.027          53.300          73.902          74.776          80.751          85.404          89.556          90.178          91.104          95.719          96.628         106.363         108.039         110.049         111.039         112.085         115.235         116.227         122.593         125.983         126.432         127.811
  420          16.905          17.636          23.966          53.552          74.058          74.906          80.895          85.456          89.422          90.312          91.132          95.675          96.691         106.210         108.086         110.273         110.933         112.063         115.238         116.432         122.547         126.020         126.591         127.844
  421          17.574          18.334          24.903          53.811          74.218          75.039          81.043          85.508          89.287          90.451          91.163          95.629          96.753         106.053         108.130         110.503         110.825         112.042         115.237         116.643         122.498         126.059         126.753         127.878
  422          18.243          19.031          25.836          54.078          74.383          75.177          81.196          85.561          89.151          90.594          91.198          95.580          96.817         105.895         108.172         110.717         110.740         112.022         115.233         116.861         122.448         126.099         126.917         127.913
  423          18.910          19.726          26.767          54.352          74.553          75.318          81.354          85.614          89.016          90.741          91.236          95.528          96.880         105.734         108.212         110.607         110.982         112.003         115.225         117.085         122.396         126.142         127.083         127.950
  424          19.577          20.421          27.696          54.633          74.728          75.463          81.516          85.668          88.881          90.892          91.277          95.474          96.943         105.571         108.250         110.496         111.230         111.986         115.213         117.315         122.341         126.185         127.250         127.988
  425          20.243          21.115          28.621          54.920          74.906          75.611          81.683          85.721          88.747          91.047          91.323          95.416          97.006         105.408         108.286         110.383         111.483         111.970         115.197         117.551         122.284         126.231         127.419         128.027
  426          20.909          21.807          29.543          55.214          75.089          75.763          81.854          85.775          88.613          91.205          91.371          95.355          97.068         105.243         108.320         110.270         111.741         111.957         115.178         117.792         122.225         126.278         127.590         128.067
  427          21.573          22.499          30.463          55.514          75.276          75.917          82.030          85.829          88.481          91.367          91.423          95.291          97.129         105.078         108.351         110.155         111.946         112.003         115.154         118.037         122.163         126.328         127.761         128.109
  428          22.236          23.189          31.379          55.820          75.467          76.075          82.209          85.882          88.349          91.479          91.533          95.223          97.189         104.913         108.381         110.039         111.938         112.269         115.126         118.287         122.100         126.379         127.934         128.152
  429          22.898          23.878          32.292          56.132          75.661          76.236          82.392          85.936          88.219          91.538          91.702          95.153          97.246         104.749         108.410         109.922         111.932         112.539         115.094         118.541         122.034         126.432         128.107         128.195
  430          23.559          24.566          33.201          56.449          75.859          76.399          82.580          85.989          88.091          91.600          91.874          95.078          97.302         104.584         108.437         109.804         111.930         112.813         115.058         118.798         121.966         126.487         128.240         128.281
  431          24.220          25.252          34.107          56.770          76.060          76.565          82.771          86.042          87.965          91.665          92.049          95.000          97.355         104.421         108.462         109.685         111.932         113.090         115.018         119.059         121.896         126.543         128.286         128.455
  432          24.879          25.937          35.010          57.097          76.265          76.734          82.966          86.095          87.840          91.733          92.227          94.919          97.406         104.259         108.486         109.565         111.937         113.370         114.974         119.322         121.823         126.602         128.332         128.630
  433          25.536          26.621          35.909          57.428          76.472          76.904          83.164          86.147          87.718          91.804          92.407          94.834          97.453         104.098         108.508         109.443         111.947         113.652         114.925         119.587         121.748         126.663         128.379         128.804
  434          26.193          27.303          36.804          57.763          76.682          77.077          83.366          86.199          87.597          91.877          92.590          94.745          97.497         103.939         108.530         109.320         111.961         113.937         114.872         119.854         121.671         126.726         128.427         128.978
  435          26.849          27.984          37.696          58.103          76.895          77.251          83.571          86.250          87.479          91.953          92.776          94.652          97.537         103.782         108.550         109.196         111.980         114.225         114.815         120.123         121.592         126.791         128.476         129.152
  436          27.503          28.664          38.583          58.445          77.110          77.427          83.780          86.301          87.364          92.030          92.964          94.555          97.572         103.628         108.570         109.070         112.005         114.514         114.754         120.393         121.510         126.859         128.525         129.326
  437          28.156          29.342          39.467          58.792          77.328          77.605          83.991          86.351          87.251          92.109          93.154          94.455          97.603         103.477         108.588         108.944         112.034         114.688         114.805         120.664         121.426         126.928         128.574         129.499
  438          28.808          30.018          40.346          59.141          77.547          77.784          84.206          86.401          87.141          92.189          93.345          94.350          97.629         103.329         108.606         108.815         112.070         114.618         115.097         120.935         121.340         127.001         128.623         129.672
  439          29.458          30.692          41.222          59.494          77.769          77.964          84.423          86.451          87.033          92.271          93.539          94.241          97.650         103.185         108.624         108.686         112.112         114.544         115.391         121.205         121.251         127.075         128.673         129.844
  440          30.107          31.365          42.093          59.849          77.992          78.145          84.643          86.500          86.929          92.352          93.735          94.129          97.664         103.045         108.555         108.640         112.160         114.466         115.685         121.161         121.476         127.152         128.723         130.014
  441          30.755          32.037          42.959          60.206          78.217          78.326          84.866          86.548          86.827          92.434          93.932          94.012          97.673         102.909         108.423         108.657         112.215         114.384         115.981         121.067         121.745         127.232         128.772         130.184
  442          31.401          32.706          43.822          60.565          78.443          78.508          85.092          86.596          86.728          92.516          93.890          94.130          97.676         102.778         108.289         108.672         112.277         114.297         116.277         120.972         122.013         127.315         128.822         130.353
  443          32.046          33.374          44.679          60.927          78.670          78.691          85.320          86.632          86.644          92.596          93.765          94.330          97.672         102.652         108.154         108.688         112.345         114.207         116.573         120.874         122.280         127.400         128.871         130.521
  444          32.689          34.040          45.533          61.290          78.874          78.898          85.550          86.540          86.691          92.676          93.636          94.530          97.661         102.531         108.017         108.703         112.421         114.112         116.870         120.774         122.544         127.489         128.920         130.687
  445          33.331          34.704          46.381          61.654          79.056          79.127          85.782          86.450          86.738          92.753          93.502          94.732          97.643         102.417         107.878         108.718         112.505         114.013         117.166         120.672         122.806         127.581         128.968         130.853
  446          33.972          35.366          47.225          62.019          79.239          79.357          86.017          86.364          86.784          92.829          93.364          94.935          97.619         102.309         107.738         108.732         112.596         113.911         117.462         120.567         123.065         127.676         129.016         131.016
  447          34.610          36.026          48.064          62.385          79.420          79.587          86.254          86.281          86.829          92.901          93.222          95.138          97.587         102.208         107.596         108.747         112.694         113.804         117.758         120.460         123.320         127.775         129.063         131.178
  448          35.247          36.684          48.898          62.752          79.601          79.817          86.201          86.493          86.874          92.970          93.076          95.342          97.548         102.115         107.452         108.761         112.800         113.693         118.053         120.351         123.572         127.878         129.109         131.339
  449          35.883          37.340          49.727          63.119          79.781          80.047          86.125          86.733          86.919          92.926          93.036          95.546          97.501         102.029         107.306         108.775         112.913         113.579         118.347         120.239         123.819         127.985         129.154         131.498
  450          36.517          37.993          50.551          63.486          79.960          80.278          86.052          86.962          86.976          92.772          93.097          95.750          97.448         101.951         107.158         108.789         113.035         113.461         118.640         120.125         124.061         128.096         129.198         131.655
  451          37.149          38.645          51.369          63.853          80.138          80.508          85.982          87.006          87.220          92.614          93.153          95.953          97.389         101.882         107.008         108.802         113.163         113.339         118.932         120.009         124.299         128.211         129.240         131.810
  452          37.779          39.294          52.183          64.220          80.313          80.737          85.916          87.048          87.465          92.452          93.204          96.155          97.323         101.822         106.856         108.816         113.213         113.299         119.223         119.891         124.531         128.332         129.282         131.964
  453          38.408          39.941          52.990          64.586          80.486          80.966          85.853          87.090          87.712          92.286          93.249          96.353          97.254         101.771         106.702         108.829         113.084         113.443         119.511         119.770         124.756         128.457         129.322         132.116
  454          39.035          40.586          53.793          64.951          80.657          81.194          85.794          87.132          87.960          92.117          93.288          96.543          97.186         101.730         106.545         108.842         112.951         113.593         119.646         119.799         124.976         128.587         129.360         132.265
  455          39.660          41.228          54.590          65.315          80.826          81.422          85.738          87.172          88.209          91.945          93.321          96.705          97.139         101.699         106.387         108.855         112.815         113.751         119.521         120.084         125.188         128.722         129.397         132.413
  456          40.283          41.868          55.381          65.678          80.991          81.648          85.685          87.212          88.460          91.769          93.347          96.785          97.166         101.677         106.225         108.868         112.676         113.916         119.393         120.367         125.394         128.862         129.432         132.559
  457          40.904          42.505          56.166          66.039          81.153          81.872          85.636          87.251          88.711          91.591          93.367          96.752          97.300         101.666         106.062         108.880         112.533         114.087         119.263         120.648         125.593         129.008         129.466         132.702
  458          41.524          43.140          56.945          66.398          81.311          82.096          85.591          87.289          88.964          91.410          93.379          96.664          97.481         101.664         105.895         108.892         112.386         114.264         119.130         120.926         125.784         129.159         129.497         132.843
  459          42.141          43.772          57.718          66.756          81.464          82.318          85.549          87.326          89.217          91.227          93.384          96.555          97.677         101.673         105.727         108.904         112.237         114.448         118.995         121.202         125.967         129.314         129.526         132.982
  460          42.756          44.402          58.485          67.111          81.613          82.538          85.510          87.363          89.471          91.041          93.382          96.434          97.879         101.692         105.555         108.916         112.084         114.637         118.858         121.475         126.144         129.475         129.553         133.119
  461          43.370          45.029          59.246          67.464          81.756          82.756          85.474          87.398          89.725          90.855          93.374          96.304          98.083         101.720         105.380         108.927         111.929         114.832         118.718         121.745         126.313         129.578         129.640         133.254
  462          43.981          45.653          60.000          67.814          81.894          82.972          85.442          87.432          89.979          90.667          93.358          96.167          98.288         101.758         105.203         108.937         111.770         115.032         118.577         122.012         126.475         129.601         129.810         133.386
  463          44.590          46.274          60.747          68.162          82.025          83.185          85.414          87.464          90.234          90.479          93.337          96.023          98.495         101.805         105.022         108.947         111.609         115.238         118.432         122.276         126.629         129.621         129.983         133.516
  464          45.197          46.892          61.487          68.506          82.148          83.397          85.388          87.496          90.292          90.489          93.308          95.873          98.702         101.861         104.839         108.957         111.445         115.448         118.286         122.536         126.778         129.638         130.159         133.644
  465          45.802          47.507          62.220          68.848          82.264          83.605          85.365          87.526          90.106          90.743          93.274          95.718          98.909         101.925         104.652         108.966         111.278         115.662         118.137         122.793         126.920         129.653         130.339         133.769
  466          46.405          48.119          62.945          69.187          82.371          83.811          85.345          87.554          89.922          90.997          93.235          95.558          99.116         101.997         104.462         108.974         111.108         115.881         117.986         123.047         127.056         129.665         130.521         133.891
  467          47.006          48.728          63.662          69.523          82.468          84.015          85.327          87.582          89.741          91.251          93.190          95.394          99.323         102.077         104.268         108.981         110.936         116.103         117.832         123.296         127.186         129.674         130.704         134.011
  468          47.604          49.334          64.371          69.856          82.554          84.215          85.312          87.607          89.565          91.503          93.141          95.227          99.530         102.163         104.071         108.988         110.762         116.329         117.676         123.542         127.311         129.681         130.889         134.129
  469          48.200          49.937          65.071          70.187          82.629          84.412          85.298          87.630          89.394          91.754          93.088          95.057          99.737         102.257         103.871         108.994         110.585         116.558         117.518         123.784         127.431         129.684         131.075         134.244
  470          48.793          50.536          65.760          70.515          82.690          84.606          85.286          87.652          89.231          92.003          93.030          94.885          99.945         102.356         103.667         108.998         110.406         116.790         117.358         124.022         127.546         129.684         131.262         134.357
  471          49.385          51.132          66.439          70.842          82.738          84.797          85.275          87.672          89.077          92.248          92.970          94.713         100.152         102.460         103.459         109.002         110.224         117.025         117.195         124.256         127.657         129.681         131.448         134.467
  472          49.974          51.725          67.105          71.167          82.769          84.984          85.264          87.690          88.933          92.487          92.906          94.543         100.359         102.570         103.247         109.005         110.041         117.030         117.262         124.485         127.764         129.675         131.634         134.574
  473          50.560          52.314          67.757          71.494          82.784          85.167          85.253          87.706          88.801          92.717          92.840          94.380         100.566         102.684         103.031         109.006         109.856         116.862         117.501         124.710         127.867         129.666         131.818         134.678
  474          51.144          52.899          68.392          71.823          82.780          85.243          85.347          87.719          88.684          92.771          92.928          94.232         100.773         102.803         102.810         109.006         109.669         116.693         117.742         124.930         127.966         129.653         132.002         134.780
  475          51.725          53.481          69.007          72.158          82.756          85.232          85.523          87.730          88.581          92.701          93.101          94.120         100.981         102.586         102.925         109.005         109.480         116.521         117.985         125.146         128.062         129.637         132.184         134.880
  476          52.304          54.059          69.598          72.502          82.711          85.221          85.695          87.739          88.495          92.630          93.199          94.081         101.188         102.357         103.050         109.003         109.289         116.347         118.229         125.357         128.154         129.617         132.364         134.976
  477          52.881          54.632          70.159          72.860          82.644          85.211          85.863          87.745          88.426          92.557          93.188          94.150         101.395         102.124         103.178         108.999         109.097         116.171         118.474         125.563         128.244         129.593         132.541         135.070
  478          53.454          55.202          70.685          73.237          82.554          85.203          86.027          87.749          88.374          92.484          93.090          94.304         101.603         101.887         103.308         108.904         108.993         115.993         118.720         125.765         128.330         129.566         132.717         135.161
  479          54.026          55.768          71.169          73.640          82.440          85.196          86.186          87.750          88.338          92.410          92.945          94.504         101.645         101.811         103.441         108.709         108.986         115.812         118.966         125.961         128.413         129.536         132.889         135.249
  480          54.594          56.330          71.606          74.072          82.303          85.191          86.341          87.748          88.319          92.336          92.779          94.724         101.398         102.019         103.575         108.512         108.978         115.630         119.213         126.153         128.494         129.501         133.059         135.334
  481          55.160          56.887          71.995          74.534          82.142          85.190          86.492          87.744          88.314          92.262          92.603          94.954         101.146         102.227         103.710         108.315         108.967         115.445         119.459         126.339         128.572         129.463         133.225         135.416
  482          55.723          57.440          72.337          75.025          81.960          85.192          86.638          87.737          88.323          92.189          92.423          95.189         100.890         102.435         103.847         108.116         108.955         115.258         119.706         126.521         128.647         129.421         133.389         135.496
  483          56.283          57.989          72.636          75.540          81.757          85.197          86.779          87.726          88.344          92.116          92.240          95.427         100.628         102.644         103.984         107.917         108.941         115.069         119.952         126.697         128.719         129.375         133.548         135.572
  484          56.840          58.532          72.898          76.072          81.534          85.206          86.916          87.713          88.375          92.043          92.058          95.665         100.362         102.853         104.122         107.716         108.925         114.879         120.198         126.868         128.789         129.325         133.705         135.646
  485          57.394          59.071          73.127          76.617          81.294          85.219          87.048          87.697          88.416          91.877          91.972          95.904         100.090         103.063         104.261         107.515         108.907         114.686         120.443         127.033         128.856         129.271         133.857         135.716
  486          57.946          59.606          73.326          77.171          81.037          85.236          87.176          87.679          88.464          91.699          91.901          96.143          99.813         103.273         104.399         107.313         108.887         114.491         120.687         127.194         128.921         129.213         134.005         135.784
  487          58.495          60.135          73.499          77.729          80.764          85.256          87.298          87.657          88.519          91.524          91.831          96.381          99.531         103.484         104.537         107.110         108.865         114.295         120.930         127.349         128.982         129.151         134.150         135.848
  488          59.040          60.659          73.647          78.290          80.478          85.279          87.416          87.632          88.580          91.353          91.762          96.618          99.243         103.695         104.675         106.907         108.840         114.096         121.172         127.498         129.041         129.084         134.290         135.909
  489          59.583          61.177          73.773          78.851          80.178          85.305          87.529          87.604          88.645          91.187          91.695          96.855          98.950         103.907         104.812         106.703         108.814         113.896         121.412         127.643         129.014         129.098         134.427         135.967
  490          60.122          61.690          73.876          79.410          79.867          85.334          87.574          87.637          88.713          91.026          91.628          97.090          98.651         104.119         104.948         106.498         108.785         113.694         121.650         127.781         128.939         129.151         134.559         136.022
  491          60.659          62.198          73.958          79.545          79.967          85.366          87.541          87.740          88.784          90.871          91.563          97.324          98.347         104.332         105.083         106.293         108.754         113.491         121.887         127.915         128.861         129.202         134.686         136.074
  492          61.192          62.699          74.019          79.213          80.521          85.401          87.505          87.839          88.858          90.723          91.499          97.556          98.037         104.546         105.217         106.088         108.720         113.286         122.122         128.043         128.778         129.250         134.810         136.122
  493          61.722          63.195          74.059          78.872          81.070          85.437          87.467          87.932          88.933          90.581          91.436          97.722          97.787         104.760         105.350         105.883         108.684         113.079         122.355         128.166         128.690         129.295         134.928         136.167
  494          62.249          63.684          74.078          78.522          81.615          85.476          87.426          88.021          89.009          90.446          91.374          97.400          98.017         104.975         105.482         105.677         108.645         112.871         122.585         128.283         128.599         129.337         135.043         136.209
  495          62.772          64.167          74.076          78.163          82.155          85.517          87.383          88.105          89.086          90.319          91.312          97.073          98.245         105.191         105.471         105.612         108.604         112.661         122.813         128.395         128.503         129.376         135.153         136.247
  496          63.292          64.643          74.054          77.797          82.690          85.560          87.338          88.184          89.163          90.199          91.252          96.740          98.472         105.264         105.407         105.740         108.561         112.450         123.039         128.403         128.502         129.412         135.258         136.282
  497          63.809          65.112          74.011          77.424          83.219          85.605          87.290          88.259          89.241          90.087          91.192          96.401          98.698         105.058         105.624         105.866         108.514         112.238         123.262         128.299         128.603         129.445         135.359         136.313
  498          64.322          65.574          73.947          77.043          83.742          85.652          87.241          88.330          89.318          89.983          91.133          96.056          98.922         104.851         105.842         105.991         108.466         112.024         123.482         128.190         128.699         129.475         135.455         136.340
  499          64.832          66.029          73.863          76.656          84.258          85.700          87.190          88.396          89.395          89.887          91.075          95.706          99.145         104.645         106.060         106.114         108.414         111.809         123.700         128.077         128.790         129.502         135.547         136.364
  500          65.339          66.475          73.760          76.263          84.768          85.750          87.137          88.457          89.471          89.800          91.017          95.349          99.367         104.438         106.234         106.279         108.360         111.593         123.914         127.960         128.875         129.525         135.634         136.385
  501          65.841          66.914          73.636          75.863          85.270          85.801          87.083          88.515          89.546          89.720          90.959          94.987          99.587         104.231         106.352         106.499         108.303         111.376         124.125         127.838         128.956         129.545         135.716         136.401
  502          66.341          67.344          73.493          75.458          85.765          85.853          87.027          88.569          89.621          89.649          90.901          94.619          99.806         104.024         106.469         106.719         108.243         111.158         124.333         127.712         129.031         129.561         135.794         136.414
  503          66.836          67.766          73.331          75.047          85.907          86.250          86.971          88.619          89.588          89.694          90.844          94.245         100.024         103.817         106.582         106.940         108.181         110.939         124.538         127.582         129.101         129.574         135.867         136.423
  504          67.328          68.178          73.150          74.631          85.962          86.726          86.913          88.666          89.536          89.767          90.786          93.865         100.240         103.609         106.694         107.162         108.115         110.720         124.739         127.447         129.166         129.583         135.935         136.428
  505          67.816          68.581          72.951          74.209          86.018          86.854          87.189          88.709          89.496          89.838          90.728          93.479         100.456         103.402         106.803         107.383         108.047         110.499         124.937         127.308         129.226         129.588         135.999         136.429
  506          68.300          68.974          72.734          73.782          86.075          86.795          87.633          88.748          89.473          89.908          90.670          93.089         100.671         103.194         106.909         107.605         107.976         110.278         125.132         127.165         129.282         129.590         136.059         136.426
  507          68.780          69.357          72.501          73.350          86.133          86.735          88.048          88.785          89.477          89.978          90.611          92.693         100.885         102.986         107.013         107.828         107.903         110.057         125.323         127.018         129.332         129.587         136.113         136.418
  508          69.256          69.729          72.250          72.913          86.191          86.674          88.410          88.818          89.531          90.046          90.551          92.293         101.098         102.778         107.114         107.826         108.051         109.835         125.510         126.867         129.378         129.581         136.164         136.407
  509          69.728          70.089          71.985          72.472          86.251          86.614          88.676          88.847          89.679          90.112          90.491          91.889         101.310         102.570         107.213         107.747         108.274         109.612         125.693         126.711         129.419         129.571         136.209         136.392
  510          70.196          70.438          71.703          72.026          86.310          86.553          88.822          88.871          89.943          90.178          90.431          91.482         101.521         102.361         107.309         107.665         108.497         109.390         125.873         126.552         129.455         129.556         136.251         136.372
  511          70.660          70.774          71.408          71.575          86.371          86.492          88.881          88.889          90.243          90.289          90.369          91.076         101.732         102.152         107.402         107.580         108.720         109.167         126.048         126.388         129.487         129.537         136.288         136.348
  512          71.098          71.098          71.120          71.120          86.431          86.431          88.895          88.895          90.306          90.306          90.675          90.675         101.942         101.942         107.492         107.492         108.943         108.943         126.220         126.220         129.514         129.514         136.320         136.320
