# Phonon frequencies in cm-1
    1           0.000           0.000           0.000          50.150          71.975          73.164          78.988          84.682          88.519          90.984          91.616          95.771          96.156         106.892         106.981         108.800         112.456         112.713         113.839         114.715         123.111         124.195         125.560         127.447
    2           0.607           0.692           0.758          50.154          71.975          73.164          78.989          84.681          88.519          90.984          91.615          95.773          96.154         106.894         106.979         108.799         112.458         112.712         113.836         114.717         123.103         124.195         125.563         127.449
    3           1.214           1.383           1.515          50.165          71.973          73.164          78.990          84.678          88.519          90.984          91.615          95.779          96.148         106.897         106.971         108.796         112.463         112.710         113.824         114.720         123.076         124.194         125.574         127.456
    4           1.822           2.075           2.273          50.183          71.971          73.164          78.993          84.674          88.519          90.985          91.614          95.789          96.137         106.903         106.957         108.789         112.472         112.707         113.806         114.726         123.033         124.193         125.592         127.468
    5           2.429           2.766           3.032          50.208          71.969          73.164          78.996          84.668          88.519          90.986          91.613          95.802          96.122         106.912         106.938         108.781         112.485         112.703         113.780         114.734         122.974         124.190         125.615         127.486
    6           3.035           3.457           3.790          50.241          71.965          73.164          79.000          84.660          88.518          90.987          91.612          95.819          96.103         106.914         106.922         108.770         112.501         112.697         113.747         114.744         122.900         124.188         125.643         127.507
    7           3.642           4.147           4.549          50.281          71.961          73.163          79.005          84.651          88.518          90.989          91.610          95.841          96.080         106.885         106.935         108.756         112.520         112.690         113.707         114.755         122.813         124.184         125.675         127.534
    8           4.248           4.837           5.308          50.328          71.956          73.163          79.011          84.640          88.517          90.990          91.608          95.865          96.052         106.851         106.951         108.741         112.543         112.682         113.661         114.768         122.713         124.180         125.709         127.565
    9           4.854           5.527           6.068          50.382          71.950          73.163          79.018          84.627          88.516          90.992          91.606          95.894          96.021         106.812         106.968         108.722         112.570         112.673         113.608         114.781         122.601         124.175         125.745         127.601
   10           5.459           6.215           6.828          50.443          71.943          73.163          79.026          84.613          88.515          90.995          91.604          95.927          95.984         106.769         106.987         108.702         112.601         112.662         113.549         114.796         122.479         124.170         125.781         127.641
   11           6.064           6.904           7.589          50.510          71.935          73.163          79.034          84.597          88.513          90.998          91.601          95.944          95.963         106.721         107.009         108.679         112.636         112.650         113.484         114.810         122.348         124.164         125.816         127.685
   12           6.669           7.591           8.351          50.584          71.927          73.163          79.043          84.579          88.511          91.001          91.598          95.899          96.004         106.668         107.032         108.654         112.637         112.674         113.413         114.825         122.209         124.158         125.851         127.733
   13           7.273           8.277           9.113          50.665          71.917          73.163          79.053          84.560          88.509          91.005          91.595          95.849          96.048         106.612         107.057         108.626         112.623         112.716         113.337         114.839         122.062         124.150         125.883         127.785
   14           7.876           8.963           9.876          50.752          71.906          73.164          79.064          84.540          88.506          91.009          91.591          95.796          96.096         106.552         107.084         108.597         112.607         112.762         113.255         114.852         121.908         124.143         125.914         127.841
   15           8.479           9.648          10.640          50.845          71.894          73.165          79.075          84.518          88.502          91.014          91.587          95.737          96.148         106.488         107.112         108.565         112.591         112.813         113.168         114.864         121.748         124.134         125.942         127.901
   16           9.080          10.331          11.405          50.945          71.880          73.166          79.088          84.494          88.498          91.019          91.583          95.674          96.204         106.421         107.142         108.531         112.572         112.867         113.076         114.875         121.582         124.125         125.967         127.963
   17           9.682          11.014          12.171          51.050          71.866          73.168          79.100          84.470          88.493          91.025          91.579          95.607          96.263         106.351         107.173         108.495         112.553         112.926         112.979         114.884         121.412         124.116         125.989         128.029
   18          10.282          11.695          12.938          51.161          71.850          73.171          79.114          84.444          88.487          91.032          91.575          95.535          96.327         106.278         107.206         108.457         112.532         112.878         112.989         114.889         121.237         124.105         126.007         128.097
   19          10.882          12.375          13.706          51.277          71.832          73.174          79.127          84.416          88.480          91.040          91.570          95.459          96.394         106.202         107.239         108.417         112.511         112.772         113.056         114.892         121.059         124.094         126.022         128.168
   20          11.480          13.053          14.475          51.399          71.813          73.178          79.142          84.388          88.473          91.048          91.565          95.377          96.465         106.123         107.274         108.375         112.487         112.661         113.128         114.891         120.878         124.083         126.033         128.241
   21          12.078          13.730          15.245          51.525          71.791          73.183          79.157          84.358          88.464          91.057          91.560          95.292          96.540         106.042         107.309         108.331         112.463         112.547         113.204         114.885         120.696         124.071         126.040         128.316
   22          12.674          14.406          16.016          51.656          71.768          73.189          79.172          84.328          88.454          91.066          91.555          95.201          96.619         105.959         107.345         108.286         112.429         112.437         113.284         114.874         120.512         124.058         126.044         128.393
   23          13.270          15.080          16.788          51.792          71.743          73.196          79.188          84.297          88.442          91.077          91.550          95.106          96.701         105.874         107.382         108.238         112.306         112.410         113.370         114.856         120.328         124.045         126.043         128.471
   24          13.864          15.752          17.562          51.932          71.716          73.205          79.204          84.264          88.430          91.089          91.544          95.006          96.788         105.787         107.419         108.189         112.181         112.382         113.460         114.831         120.145         124.031         126.039         128.551
   25          14.458          16.423          18.336          52.077          71.687          73.215          79.220          84.231          88.416          91.101          91.538          94.902          96.878         105.698         107.457         108.139         112.052         112.353         113.554         114.798         119.964         124.017         126.031         128.631
   26          15.050          17.092          19.112          52.225          71.655          73.226          79.237          84.198          88.400          91.114          91.533          94.792          96.972         105.608         107.494         108.087         111.920         112.322         113.654         114.755         119.786         124.002         126.018         128.713
   27          15.640          17.759          19.889          52.376          71.620          73.239          79.254          84.163          88.383          91.129          91.527          94.679          97.069         105.516         107.532         108.033         111.785         112.290         113.758         114.701         119.613         123.986         126.002         128.794
   28          16.230          18.423          20.667          52.531          71.583          73.254          79.271          84.129          88.364          91.144          91.521          94.560          97.170         105.423         107.570         107.979         111.648         112.257         113.866         114.635         119.445         123.970         125.982         128.876
   29          16.818          19.086          21.446          52.689          71.543          73.271          79.289          84.093          88.344          91.160          91.515          94.437          97.275         105.328         107.608         107.923         111.508         112.222         113.980         114.555         119.284         123.953         125.958         128.959
   30          17.405          19.747          22.227          52.849          71.500          73.290          79.307          84.058          88.322          91.177          91.509          94.310          97.384         105.232         107.646         107.866         111.365         112.186         114.098         114.460         119.132         123.936         125.930         129.041
   31          17.990          20.406          23.008          53.012          71.455          73.312          79.325          84.023          88.298          91.195          91.503          94.178          97.496         105.134         107.684         107.807         111.221         112.149         114.221         114.350         118.989         123.918         125.897         129.122
   32          18.573          21.062          23.791          53.177          71.406          73.335          79.344          83.987          88.271          91.214          91.496          94.041          97.611         105.035         107.721         107.748         111.076         112.111         114.222         114.349         118.856         123.900         125.861         129.204
   33          19.155          21.716          24.574          53.344          71.353          73.361          79.362          83.952          88.243          91.234          91.490          93.900          97.730         104.934         107.688         107.759         110.928         112.071         114.076         114.482         118.735         123.881         125.821         129.284
   34          19.736          22.368          25.359          53.512          71.298          73.389          79.381          83.917          88.213          91.255          91.484          93.755          97.853         104.832         107.628         107.796         110.780         112.030         113.912         114.619         118.626         123.861         125.778         129.364
   35          20.315          23.017          26.145          53.681          71.239          73.419          79.400          83.883          88.181          91.276          91.478          93.606          97.978         104.728         107.566         107.832         110.630         111.988         113.729         114.760         118.529         123.841         125.730         129.443
   36          20.891          23.664          26.932          53.851          71.176          73.452          79.420          83.849          88.147          91.298          91.471          93.452          98.107         104.623         107.504         107.868         110.480         111.944         113.528         114.906         118.443         123.821         125.679         129.520
   37          21.467          24.308          27.719          54.022          71.110          73.488          79.440          83.815          88.110          91.321          91.465          93.294          98.239         104.515         107.442         107.904         110.329         111.900         113.309         115.057         118.369         123.800         125.624         129.596
   38          22.040          24.950          28.508          54.192          71.040          73.527          79.460          83.783          88.072          91.345          91.459          93.133          98.375         104.406         107.380         107.940         110.178         111.854         113.073         115.212         118.306         123.778         125.565         129.671
   39          22.611          25.588          29.297          54.363          70.967          73.568          79.480          83.752          88.031          91.369          91.453          92.967          98.513         104.294         107.317         107.975         110.028         111.806         112.820         115.371         118.253         123.756         125.503         129.744
   40          23.181          26.224          30.088          54.532          70.890          73.611          79.501          83.722          87.988          91.394          91.447          92.798          98.655         104.180         107.254         108.010         109.877         111.758         112.551         115.534         118.209         123.733         125.437         129.815
   41          23.748          26.857          30.879          54.701          70.809          73.658          79.523          83.693          87.943          91.419          91.441          92.625          98.799         104.063         107.192         108.044         109.727         111.708         112.268         115.702         118.174         123.710         125.368         129.885
   42          24.314          27.488          31.670          54.869          70.724          73.707          79.545          83.666          87.895          91.436          91.444          92.449          98.946         103.943         107.129         108.079         109.578         111.657         111.971         115.873         118.146         123.686         125.295         129.952
   43          24.877          28.115          32.463          55.035          70.635          73.760          79.567          83.640          87.845          91.430          91.470          92.269          99.095         103.820         107.067         108.113         109.430         111.605         111.661         116.048         118.125         123.662         125.219         130.017
   44          25.438          28.739          33.255          55.198          70.542          73.815          79.590          83.617          87.793          91.425          91.496          92.086          99.248         103.693         107.005         108.146         109.283         111.340         111.551         116.227         118.109         123.638         125.140         130.080
   45          25.997          29.360          34.049          55.360          70.445          73.873          79.614          83.596          87.738          91.419          91.523          91.899          99.402         103.563         106.944         108.180         109.136         111.008         111.497         116.409         118.098         123.613         125.057         130.141
   46          26.554          29.978          34.842          55.518          70.344          73.934          79.639          83.577          87.681          91.414          91.549          91.710          99.559         103.429         106.884         108.214         108.991         110.667         111.441         116.594         118.092         123.587         124.972         130.199
   47          27.108          30.593          35.636          55.674          70.240          73.997          79.665          83.560          87.622          91.410          91.517          91.575          99.718         103.291         106.825         108.247         108.845         110.318         111.384         116.783         118.089         123.561         124.883         130.254
   48          27.660          31.204          36.431          55.826          70.130          74.064          79.692          83.546          87.560          91.322          91.405          91.601          99.880         103.148         106.766         108.281         108.697         109.965         111.325         116.975         118.089         123.535         124.792         130.306
   49          28.210          31.812          37.225          55.973          70.017          74.133          79.720          83.535          87.496          91.124          91.400          91.627         100.043         103.001         106.709         108.315         108.545         109.610         111.266         117.169         118.092         123.508         124.698         130.356
   50          28.757          32.417          38.019          56.117          69.900          74.206          79.750          83.527          87.429          90.924          91.396          91.653         100.208         102.848         106.653         108.350         108.382         109.261         111.205         117.367         118.097         123.481         124.601         130.403
   51          29.301          33.018          38.814          56.256          69.778          74.281          79.781          83.522          87.360          90.721          91.392          91.678         100.374         102.691         106.599         108.194         108.384         108.931         111.144         117.567         118.103         123.453         124.502         130.447
   52          29.843          33.616          39.608          56.390          69.652          74.359          79.813          83.521          87.289          90.515          91.389          91.703         100.542         102.529         106.546         107.961         108.420         108.643         111.081         117.769         118.111         123.425         124.400         130.488
   53          30.382          34.210          40.402          56.518          69.521          74.441          79.848          83.523          87.215          90.307          91.385          91.727         100.711         102.361         106.494         107.665         108.414         108.455         111.017         117.974         118.119         123.397         124.297         130.525
   54          30.919          34.800          41.196          56.640          69.387          74.525          79.884          83.530          87.139          90.098          91.382          91.751         100.882         102.188         106.445         107.315         108.237         108.492         110.951         118.128         118.180         123.368         124.191         130.559
   55          31.452          35.387          41.989          56.756          69.248          74.612          79.922          83.540          87.060          89.885          91.379          91.774         101.053         102.009         106.397         106.928         108.093         108.530         110.885         118.137         118.389         123.339         124.084         130.590
   56          31.983          35.970          42.782          56.865          69.104          74.702          79.963          83.554          86.979          89.671          91.377          91.796         101.225         101.825         106.351         106.519         107.968         108.568         110.818         118.146         118.599         123.310         123.974         130.618
   57          32.511          36.549          43.574          56.968          68.956          74.794          80.006          83.572          86.895          89.455          91.375          91.817         101.397         101.635         106.096         106.308         107.857         108.608         110.749         118.154         118.811         123.281         123.864         130.642
   58          33.036          37.125          44.365          57.063          68.803          74.890          80.051          83.595          86.809          89.237          91.373          91.838         101.440         101.570         105.661         106.267         107.754         108.650         110.680         118.161         119.024         123.251         123.752         130.663
   59          33.558          37.696          45.155          57.151          68.646          74.988          80.100          83.623          86.720          89.018          91.372          91.857         101.239         101.742         105.216         106.228         107.660         108.693         110.609         118.167         119.238         123.222         123.639         130.680
   60          34.077          38.263          45.944          57.230          68.484          75.089          80.151          83.656          86.629          88.796          91.371          91.875         101.033         101.914         104.764         106.192         107.571         108.737         110.538         118.172         119.453         123.192         123.526         130.693
   61          34.592          38.827          46.732          57.302          68.318          75.193          80.205          83.693          86.535          88.573          91.370          91.893         100.821         102.086         104.305         106.158         107.488         108.784         110.465         118.174         119.669         123.162         123.412         130.702
   62          35.105          39.386          47.518          57.365          68.147          75.300          80.262          83.736          86.439          88.348          91.370          91.909         100.605         102.257         103.840         106.127         107.411         108.833         110.392         118.175         119.885         123.132         123.298         130.708
   63          35.614          39.941          48.302          57.419          67.972          75.409          80.323          83.784          86.340          88.121          91.370          91.924         100.384         102.427         103.368         106.099         107.338         108.884         110.318         118.173         120.102         123.103         123.185         130.710
   64          36.120          40.493          49.085          57.464          67.791          75.522          80.386          83.838          86.239          87.892          91.371          91.938         100.157         102.596         102.892         106.074         107.269         108.938         110.242         118.168         120.318         123.072         123.074         130.708
   65          36.622          41.039          49.865          57.501          67.606          75.636          80.454          83.897          86.136          87.662          91.372          91.950          99.926         102.410         102.763         106.051         107.204         108.995         110.166         118.160         120.534         122.960         123.045         130.703
   66          37.121          41.582          50.642          57.529          67.416          75.754          80.525          83.962          86.029          87.430          91.374          91.962          99.691         101.923         102.928         106.032         107.144         109.054         110.089         118.148         120.749         122.850         123.018         130.693
   67          37.617          42.120          51.416          57.548          67.222          75.874          80.600          84.033          85.921          87.196          91.376          91.972          99.451         101.433         103.090         106.015         107.087         109.118         110.012         118.131         120.963         122.741         122.991         130.679
   68          38.109          42.654          52.187          57.559          67.023          75.996          80.678          84.111          85.810          86.960          91.378          91.980          99.207         100.938         103.250         106.002         107.033         109.185         109.933         118.111         121.174         122.635         122.967         130.662
   69          38.597          43.184          52.951          57.564          66.818          76.121          80.761          84.194          85.696          86.722          91.381          91.988          98.958         100.440         103.407         105.992         106.982         109.256         109.854         118.085         121.382         122.531         122.946         130.640
   70          39.081          43.709          53.709          57.562          66.609          76.248          80.847          84.284          85.580          86.482          91.384          91.994          98.706          99.939         103.561         105.985         106.935         109.331         109.774         118.053         121.584         122.431         122.930         130.614
   71          39.562          44.230          54.454          57.560          66.395          76.378          80.937          84.380          85.462          86.239          91.388          91.999          98.450          99.436         103.712         105.981         106.890         109.410         109.693         118.016         121.778         122.335         122.921         130.584
   72          40.039          44.746          55.179          57.565          66.176          76.510          81.031          84.482          85.341          85.994          91.392          92.002          98.188          98.932         103.858         105.981         106.848         109.494         109.612         117.973         121.958         122.243         122.925         130.550
   73          40.511          45.258          55.858          57.602          65.953          76.645          81.129          84.592          85.218          85.746          91.397          92.005          97.920          98.429         104.001         105.984         106.809         109.530         109.583         117.922         122.117         122.155         122.950         130.512
   74          40.980          45.765          56.425          57.737          65.724          76.781          81.231          84.708          85.093          85.495          91.403          92.006          97.637          97.937         104.138         105.990         106.771         109.448         109.677         117.865         122.073         122.243         123.007         130.470
   75          41.445          46.268          56.758          58.092          65.490          76.920          81.337          84.831          84.965          85.240          91.408          92.005          97.291          97.503         104.272         105.999         106.736         109.365         109.776         117.800         121.996         122.328         123.104         130.423
   76          41.905          46.765          56.861          58.664          65.251          77.061          81.447          84.835          84.961          84.982          91.415          92.004          96.832          97.179         104.400         106.011         106.702         109.282         109.881         117.728         121.924         122.373         123.239         130.372
   77          42.361          47.258          56.850          59.335          65.007          77.203          81.561          84.702          84.720          85.097          91.421          92.001          96.332          96.894         104.523         106.027         106.671         109.198         109.991         117.648         121.859         122.390         123.401         130.318
   78          42.813          47.747          56.788          60.042          64.759          77.348          81.680          84.453          84.568          85.241          91.429          91.997          95.825          96.615         104.641         106.046         106.641         109.114         110.106         117.559         121.800         122.388         123.581         130.259
   79          43.260          48.231          56.698          60.763          64.505          77.495          81.802          84.181          84.431          85.391          91.436          91.993          95.315          96.337         104.754         106.068         106.612         109.030         110.228         117.464         121.746         122.375         123.769         130.195
   80          43.703          48.709          56.588          61.489          64.246          77.643          81.929          83.903          84.293          85.549          91.445          91.987          94.806          96.058         104.862         106.093         106.585         108.945         110.355         117.360         121.699         122.356         123.963         130.128
   81          44.141          49.183          56.463          62.216          63.982          77.793          82.060          83.619          84.152          85.713          91.453          91.980          94.298          95.779         104.964         106.121         106.559         108.860         110.487         117.248         121.658         122.332         124.160         130.056
   82          44.575          49.653          56.324          62.941          63.713          77.945          82.195          83.328          84.009          85.884          91.463          91.972          93.794          95.499         105.060         106.153         106.535         108.775         110.625         117.130         121.623         122.305         124.358         129.981
   83          45.003          50.117          56.172          63.438          63.664          78.098          82.335          83.030          83.865          86.061          91.472          91.963          93.293          95.217         105.152         106.187         106.511         108.690         110.768         117.004         121.593         122.276         124.556         129.901
   84          45.427          50.576          56.009          63.159          64.383          78.253          82.480          82.723          83.718          86.245          91.483          91.953          92.798          94.936         105.238         106.224         106.488         108.605         110.916         116.871         121.569         122.245         124.753         129.816
   85          45.846          51.031          55.835          62.874          65.097          78.409          82.406          82.630          83.570          86.435          91.493          91.943          92.308          94.653         105.319         106.264         106.465         108.520         111.069         116.732         121.550         122.214         124.949         129.728
   86          46.259          51.480          55.650          62.585          65.807          78.567          82.080          82.785          83.420          86.632          91.504          91.825          91.932          94.370         105.396         106.307         106.443         108.435         111.227         116.586         121.536         122.182         125.144         129.636
   87          46.668          51.925          55.454          62.290          66.511          78.725          81.743          82.945          83.268          86.835          91.350          91.516          91.920          94.086         105.468         106.352         106.422         108.350         111.389         116.435         121.527         122.150         125.337         129.539
   88          47.071          52.364          55.249          61.990          67.208          78.885          81.393          83.111          83.115          87.043          90.884          91.528          91.907          93.803         105.535         106.400         106.401         108.265         111.555         116.279         121.521         122.117         125.529         129.439
   89          47.468          52.799          55.034          61.684          67.900          79.046          81.031          82.960          83.283          87.257          90.429          91.540          91.894          93.519         105.598         106.380         106.450         108.181         111.725         116.118         121.520         122.084         125.718         129.334
   90          47.860          53.228          54.809          61.374          68.584          79.208          80.655          82.804          83.461          87.477          89.983          91.553          91.881          93.236         105.657         106.360         106.503         108.097         111.899         115.952         121.522         122.051         125.905         129.225
   91          48.247          53.653          54.575          61.058          69.260          79.370          80.265          82.647          83.646          87.702          89.550          91.566          91.867          92.953         105.712         106.339         106.558         108.013         112.075         115.783         121.528         122.018         126.089         129.113
   92          48.628          54.072          54.333          60.737          69.929          79.534          79.859          82.488          83.838          87.932          89.130          91.579          91.852          92.671         105.764         106.318         106.616         107.930         112.255         115.610         121.536         121.985         126.271         128.996
   93          49.002          54.081          54.486          60.411          70.588          79.437          79.698          82.329          84.038          88.167          88.722          91.593          91.838          92.389         105.812         106.297         106.675         107.848         112.437         115.433         121.547         121.952         126.450         128.875
   94          49.371          53.820          54.896          60.080          71.238          79.000          79.862          82.168          84.245          88.329          88.406          91.607          91.823          92.109         105.857         106.276         106.737         107.766         112.621         115.254         121.561         121.920         126.626         128.751
   95          49.734          53.552          55.300          59.744          71.879          78.545          80.027          82.006          84.462          87.950          88.650          91.622          91.807          91.830         105.899         106.254         106.800         107.685         112.807         115.072         121.577         121.888         126.799         128.622
   96          50.090          53.275          55.698          59.402          72.508          78.074          80.193          81.844          84.688          87.585          88.898          91.552          91.637          91.792         105.939         106.231         106.866         107.605         112.995         114.888         121.595         121.857         126.970         128.490
   97          50.440          52.990          56.092          59.055          73.127          77.587          80.358          81.680          84.923          87.235          89.150          91.276          91.652          91.776         105.976         106.208         106.933         107.525         113.184         114.702         121.616         121.826         127.137         128.354
   98          50.783          52.697          56.481          58.703          73.733          77.082          80.524          81.516          85.169          86.899          89.405          91.001          91.667          91.761         106.011         106.184         107.002         107.447         113.373         114.514         121.637         121.796         127.301         128.214
   99          51.120          52.396          56.864          58.345          74.327          76.562          80.690          81.352          85.426          86.578          89.664          90.729          91.682          91.745         106.044         106.159         107.073         107.370         113.564         114.325         121.661         121.767         127.462         128.071
  100          51.450          52.088          57.242          57.983          74.907          76.025          80.856          81.187          85.695          86.270          89.926          90.458          91.698          91.729         106.075         106.132         107.145         107.293         113.755         114.136         121.686         121.739         127.619         127.924
  101          51.772          51.772          57.615          57.615          75.474          75.474          81.021          81.021          85.976          85.976          90.191          90.191          91.713          91.713         106.104         106.104         107.219         107.219         113.945         113.945         121.712         121.712         127.773         127.773
  102          51.777          51.777          57.617          57.617          75.474          75.474          81.020          81.020          85.972          85.972          90.197          90.197          91.714          91.714         106.104         106.104         107.218         107.218         113.945         113.945         121.709         121.709         127.773         127.773
  103          51.789          51.789          57.622          57.622          75.476          75.476          81.016          81.016          85.958          85.958          90.214          90.214          91.717          91.717         106.103         106.103         107.216         107.216         113.945         113.945         121.701         121.701         127.772         127.772
  104          51.811          51.811          57.630          57.630          75.479          75.479          81.010          81.010          85.937          85.937          90.242          90.242          91.722          91.722         106.101         106.101         107.212         107.212         113.945         113.945         121.688         121.688         127.771         127.771
  105          51.841          51.841          57.641          57.641          75.483          75.483          81.000          81.000          85.907          85.907          90.281          90.281          91.730          91.730         106.099         106.099         107.207         107.207         113.944         113.944         121.670         121.670         127.768         127.768
  106          51.879          51.879          57.656          57.656          75.488          75.488          80.989          80.989          85.869          85.869          90.330          90.330          91.739          91.739         106.096         106.096         107.200         107.200         113.944         113.944         121.646         121.646         127.766         127.766
  107          51.926          51.926          57.674          57.674          75.495          75.495          80.974          80.974          85.824          85.824          90.389          90.389          91.750          91.750         106.092         106.092         107.192         107.192         113.943         113.943         121.618         121.618         127.762         127.762
  108          51.982          51.982          57.695          57.695          75.502          75.502          80.957          80.957          85.773          85.773          90.457          90.457          91.763          91.763         106.087         106.087         107.182         107.182         113.943         113.943         121.584         121.584         127.758         127.758
  109          52.046          52.046          57.719          57.719          75.511          75.511          80.937          80.937          85.716          85.716          90.533          90.533          91.778          91.778         106.082         106.082         107.171         107.171         113.942         113.942         121.545         121.545         127.754         127.754
  110          52.118          52.118          57.746          57.746          75.521          75.521          80.915          80.915          85.654          85.654          90.616          90.616          91.795          91.795         106.076         106.076         107.159         107.159         113.941         113.941         121.501         121.501         127.749         127.749
  111          52.198          52.198          57.777          57.777          75.532          75.532          80.890          80.890          85.588          85.588          90.707          90.707          91.814          91.814         106.069         106.069         107.145         107.145         113.940         113.940         121.452         121.452         127.743         127.743
  112          52.286          52.286          57.811          57.811          75.543          75.543          80.863          80.863          85.518          85.518          90.803          90.803          91.835          91.835         106.062         106.062         107.129         107.129         113.939         113.939         121.398         121.398         127.736         127.736
  113          52.383          52.383          57.848          57.848          75.556          75.556          80.833          80.833          85.446          85.446          90.905          90.905          91.857          91.857         106.054         106.054         107.112         107.112         113.937         113.937         121.338         121.338         127.729         127.729
  114          52.487          52.487          57.888          57.888          75.570          75.570          80.801          80.801          85.371          85.371          91.013          91.013          91.882          91.882         106.045         106.045         107.094         107.094         113.936         113.936         121.274         121.274         127.721         127.721
  115          52.599          52.599          57.931          57.931          75.585          75.585          80.766          80.766          85.294          85.294          91.124          91.124          91.908          91.908         106.036         106.036         107.074         107.074         113.935         113.935         121.205         121.205         127.713         127.713
  116          52.719          52.719          57.977          57.977          75.600          75.600          80.729          80.729          85.216          85.216          91.240          91.240          91.937          91.937         106.026         106.026         107.053         107.053         113.933         113.933         121.131         121.131         127.704         127.704
  117          52.846          52.846          58.026          58.026          75.617          75.617          80.689          80.689          85.137          85.137          91.359          91.359          91.967          91.967         106.015         106.015         107.030         107.030         113.931         113.931         121.052         121.052         127.695         127.695
  118          52.981          52.981          58.078          58.078          75.634          75.634          80.647          80.647          85.058          85.058          91.481          91.481          91.998          91.998         106.004         106.004         107.006         107.006         113.930         113.930         120.968         120.968         127.684         127.684
  119          53.122          53.122          58.134          58.134          75.652          75.652          80.603          80.603          84.979          84.979          91.606          91.606          92.032          92.032         105.992         105.992         106.981         106.981         113.928         113.928         120.879         120.879         127.674         127.674
  120          53.271          53.271          58.192          58.192          75.670          75.670          80.556          80.556          84.901          84.901          91.733          91.733          92.067          92.067         105.979         105.979         106.954         106.954         113.926         113.926         120.786         120.786         127.662         127.662
  121          53.427          53.427          58.253          58.253          75.690          75.690          80.507          80.507          84.823          84.823          91.862          91.862          92.104          92.104         105.966         105.966         106.926         106.926         113.923         113.923         120.688         120.688         127.650         127.650
  122          53.589          53.589          58.317          58.317          75.709          75.709          80.456          80.456          84.746          84.746          91.993          91.993          92.142          92.142         105.952         105.952         106.897         106.897         113.921         113.921         120.585         120.585         127.638         127.638
  123          53.758          53.758          58.383          58.383          75.730          75.730          80.403          80.403          84.671          84.671          92.125          92.125          92.182          92.182         105.937         105.937         106.866         106.866         113.919         113.919         120.478         120.478         127.624         127.624
  124          53.934          53.934          58.453          58.453          75.750          75.750          80.347          80.347          84.598          84.598          92.224          92.224          92.259          92.259         105.922         105.922         106.834         106.834         113.916         113.916         120.367         120.367         127.611         127.611
  125          54.115          54.115          58.525          58.525          75.771          75.771          80.290          80.290          84.526          84.526          92.267          92.267          92.394          92.394         105.906         105.906         106.800         106.800         113.913         113.913         120.251         120.251         127.596         127.596
  126          54.303          54.303          58.600          58.600          75.792          75.792          80.230          80.230          84.457          84.457          92.312          92.312          92.529          92.529         105.890         105.890         106.766         106.766         113.910         113.910         120.131         120.131         127.581         127.581
  127          54.496          54.496          58.678          58.678          75.813          75.813          80.168          80.168          84.390          84.390          92.358          92.358          92.666          92.666         105.872         105.872         106.730         106.730         113.907         113.907         120.007         120.007         127.566         127.566
  128          54.695          54.695          58.758          58.758          75.835          75.835          80.104          80.104          84.326          84.326          92.405          92.405          92.802          92.802         105.855         105.855         106.692         106.692         113.903         113.903         119.878         119.878         127.550         127.550
  129          54.899          54.899          58.841          58.841          75.856          75.856          80.038          80.038          84.264          84.264          92.454          92.454          92.940          92.940         105.836         105.836         106.654         106.654         113.899         113.899         119.746         119.746         127.533         127.533
  130          55.108          55.108          58.926          58.926          75.877          75.877          79.970          79.970          84.206          84.206          92.504          92.504          93.077          93.077         105.817         105.817         106.614         106.614         113.895         113.895         119.610         119.610         127.516         127.516
  131          55.322          55.322          59.014          59.014          75.898          75.898          79.900          79.900          84.152          84.152          92.556          92.556          93.214          93.214         105.797         105.797         106.573         106.573         113.890         113.890         119.470         119.470         127.498         127.498
  132          55.541          55.541          59.104          59.104          75.918          75.918          79.829          79.829          84.100          84.100          92.608          92.608          93.352          93.352         105.777         105.777         106.531         106.531         113.885         113.885         119.327         119.327         127.480         127.480
  133          55.764          55.764          59.197          59.197          75.938          75.938          79.755          79.755          84.053          84.053          92.662          92.662          93.489          93.489         105.756         105.756         106.488         106.488         113.880         113.880         119.180         119.180         127.461         127.461
  134          55.992          55.992          59.292          59.292          75.958          75.958          79.680          79.680          84.009          84.009          92.717          92.717          93.626          93.626         105.735         105.735         106.444         106.444         113.873         113.873         119.030         119.030         127.442         127.442
  135          56.223          56.223          59.389          59.389          75.977          75.977          79.603          79.603          83.969          83.969          92.773          92.773          93.762          93.762         105.713         105.713         106.399         106.399         113.866         113.866         118.877         118.877         127.422         127.422
  136          56.458          56.458          59.488          59.488          75.994          75.994          79.524          79.524          83.934          83.934          92.830          92.830          93.898          93.898         105.690         105.690         106.352         106.352         113.858         113.858         118.721         118.721         127.402         127.402
  137          56.697          56.697          59.589          59.589          76.011          76.011          79.443          79.443          83.903          83.903          92.889          92.889          94.034          94.034         105.666         105.666         106.305         106.305         113.850         113.850         118.562         118.562         127.381         127.381
  138          56.939          56.939          59.693          59.693          76.027          76.027          79.361          79.361          83.877          83.877          92.948          92.948          94.169          94.169         105.642         105.642         106.256         106.256         113.840         113.840         118.401         118.401         127.360         127.360
  139          57.184          57.184          59.798          59.798          76.042          76.042          79.278          79.278          83.855          83.855          93.008          93.008          94.303          94.303         105.618         105.618         106.207         106.207         113.829         113.829         118.238         118.238         127.338         127.338
  140          57.431          57.431          59.906          59.906          76.055          76.055          79.192          79.192          83.839          83.839          93.069          93.069          94.436          94.436         105.593         105.593         106.156         106.156         113.816         113.816         118.073         118.073         127.316         127.316
  141          57.681          57.681          60.015          60.015          76.067          76.067          79.106          79.106          83.827          83.827          93.131          93.131          94.569          94.569         105.567         105.567         106.105         106.105         113.801         113.801         117.906         117.906         127.294         127.294
  142          57.934          57.934          60.126          60.126          76.077          76.077          79.017          79.017          83.821          83.821          93.194          93.194          94.700          94.700         105.540         105.540         106.053         106.053         113.784         113.784         117.739         117.739         127.272         127.272
  143          58.188          58.188          60.238          60.238          76.086          76.086          78.928          78.928          83.820          83.820          93.257          93.257          94.831          94.831         105.513         105.513         106.000         106.000         113.765         113.765         117.571         117.571         127.249         127.249
  144          58.444          58.444          60.353          60.353          76.093          76.093          78.837          78.837          83.825          83.825          93.321          93.321          94.961          94.961         105.486         105.486         105.946         105.946         113.743         113.743         117.403         117.403         127.225         127.225
  145          58.702          58.702          60.469          60.469          76.098          76.098          78.745          78.745          83.835          83.835          93.386          93.386          95.089          95.089         105.457         105.457         105.891         105.891         113.717         113.717         117.236         117.236         127.202         127.202
  146          58.961          58.961          60.586          60.586          76.101          76.101          78.651          78.651          83.850          83.850          93.452          93.452          95.216          95.216         105.428         105.428         105.836         105.836         113.688         113.688         117.070         117.070         127.178         127.178
  147          59.220          59.220          60.705          60.705          76.101          76.101          78.556          78.556          83.872          83.872          93.518          93.518          95.342          95.342         105.399         105.399         105.780         105.780         113.653         113.653         116.906         116.906         127.154         127.154
  148          59.481          59.481          60.825          60.825          76.100          76.100          78.461          78.461          83.899          83.899          93.585          93.585          95.467          95.467         105.369         105.369         105.723         105.723         113.614         113.614         116.745         116.745         127.129         127.129
  149          59.742          59.742          60.946          60.946          76.096          76.096          78.364          78.364          83.932          83.932          93.652          93.652          95.591          95.591         105.338         105.338         105.665         105.665         113.568         113.568         116.589         116.589         127.105         127.105
  150          60.003          60.003          61.069          61.069          76.090          76.090          78.266          78.266          83.972          83.972          93.719          93.719          95.713          95.713         105.307         105.307         105.607         105.607         113.514         113.514         116.437         116.437         127.080         127.080
  151          60.265          60.265          61.192          61.192          76.082          76.082          78.167          78.167          84.017          84.017          93.787          93.787          95.834          95.834         105.275         105.275         105.549         105.549         113.453         113.453         116.291         116.291         127.055         127.055
  152          60.526          60.526          61.317          61.317          76.071          76.071          78.067          78.067          84.068          84.068          93.855          93.855          95.953          95.953         105.243         105.243         105.490         105.490         113.382         113.382         116.153         116.153         127.031         127.031
  153          60.786          60.786          61.442          61.442          76.058          76.058          77.966          77.966          84.125          84.125          93.924          93.924          96.071          96.071         105.210         105.210         105.430         105.430         113.301         113.301         116.022         116.022         127.005         127.005
  154          61.046          61.046          61.569          61.569          76.042          76.042          77.864          77.864          84.187          84.187          93.993          93.993          96.188          96.188         105.177         105.177         105.370         105.370         113.209         113.209         115.902         115.902         126.980         126.980
  155          61.305          61.305          61.696          61.696          76.024          76.024          77.762          77.762          84.256          84.256          94.062          94.062          96.303          96.303         105.143         105.143         105.310         105.310         113.106         113.106         115.791         115.791         126.955         126.955
  156          61.563          61.563          61.823          61.823          76.003          76.003          77.659          77.659          84.330          84.330          94.131          94.131          96.416          96.416         105.109         105.109         105.250         105.250         112.991         112.991         115.690         115.690         126.930         126.930
  157          61.819          61.819          61.951          61.951          75.979          75.979          77.555          77.555          84.410          84.410          94.200          94.200          96.528          96.528         105.074         105.074         105.189         105.189         112.864         112.864         115.601         115.601         126.905         126.905
  158          62.073          62.073          62.080          62.080          75.953          75.953          77.451          77.451          84.496          84.496          94.269          94.269          96.637          96.637         105.039         105.039         105.128         105.128         112.725         112.725         115.521         115.521         126.880         126.880
  159          62.208          62.208          62.326          62.326          75.925          75.925          77.347          77.347          84.587          84.587          94.338          94.338          96.746          96.746         105.004         105.004         105.067         105.067         112.576         112.576         115.452         115.452         126.855         126.855
  160          62.337          62.337          62.577          62.577          75.894          75.894          77.242          77.242          84.684          84.684          94.406          94.406          96.852          96.852         104.968         104.968         105.006         105.006         112.416         112.416         115.392         115.392         126.830         126.830
  161          62.466          62.466          62.825          62.825          75.861          75.861          77.137          77.137          84.785          84.785          94.475          94.475          96.957          96.957         104.932         104.932         104.945         104.945         112.247         112.247         115.341         115.341         126.805         126.805
  162          62.595          62.595          63.071          63.071          75.825          75.825          77.032          77.032          84.891          84.891          94.543          94.543          97.060          97.060         104.884         104.884         104.896         104.896         112.070         112.070         115.298         115.298         126.781         126.781
  163          62.723          62.723          63.314          63.314          75.787          75.787          76.927          76.927          85.003          85.003          94.611          94.611          97.160          97.160         104.823         104.823         104.859         104.859         111.886         111.886         115.262         115.262         126.757         126.757
  164          62.851          62.851          63.554          63.554          75.747          75.747          76.821          76.821          85.118          85.118          94.679          94.679          97.259          97.259         104.763         104.763         104.823         104.823         111.695         111.695         115.232         115.232         126.732         126.732
  165          62.979          62.979          63.790          63.790          75.705          75.705          76.716          76.716          85.238          85.238          94.746          94.746          97.356          97.356         104.703         104.703         104.786         104.786         111.499         111.499         115.208         115.208         126.709         126.709
  166          63.106          63.106          64.024          64.024          75.660          75.660          76.612          76.612          85.361          85.361          94.812          94.812          97.451          97.451         104.643         104.643         104.750         104.750         111.300         111.300         115.188         115.188         126.685         126.685
  167          63.232          63.232          64.254          64.254          75.614          75.614          76.507          76.507          85.489          85.489          94.878          94.878          97.543          97.543         104.583         104.583         104.713         104.713         111.096         111.096         115.173         115.173         126.662         126.662
  168          63.358          63.358          64.480          64.480          75.566          75.566          76.403          76.403          85.619          85.619          94.943          94.943          97.633          97.633         104.525         104.525         104.677         104.677         110.891         110.891         115.161         115.161         126.639         126.639
  169          63.482          63.482          64.702          64.702          75.516          75.516          76.300          76.300          85.753          85.753          95.007          95.007          97.721          97.721         104.466         104.466         104.642         104.642         110.683         110.683         115.152         115.152         126.617         126.617
  170          63.605          63.605          64.920          64.920          75.464          75.464          76.198          76.198          85.889          85.889          95.070          95.070          97.807          97.807         104.409         104.409         104.606         104.606         110.474         110.474         115.146         115.146         126.595         126.595
  171          63.726          63.726          65.134          65.134          75.411          75.411          76.096          76.096          86.027          86.027          95.132          95.132          97.890          97.890         104.352         104.352         104.572         104.572         110.265         110.265         115.142         115.142         126.573         126.573
  172          63.846          63.846          65.343          65.343          75.357          75.357          75.996          75.996          86.167          86.167          95.193          95.193          97.970          97.970         104.296         104.296         104.538         104.538         110.056         110.056         115.140         115.140         126.552         126.552
  173          63.964          63.964          65.548          65.548          75.301          75.301          75.897          75.897          86.308          86.308          95.253          95.253          98.047          98.047         104.242         104.242         104.504         104.504         109.848         109.848         115.140         115.140         126.532         126.532
  174          64.080          64.080          65.747          65.747          75.245          75.245          75.799          75.799          86.450          86.450          95.311          95.311          98.122          98.122         104.188         104.188         104.472         104.472         109.641         109.641         115.141         115.141         126.512         126.512
  175          64.194          64.194          65.942          65.942          75.187          75.187          75.703          75.703          86.593          86.593          95.369          95.369          98.194          98.194         104.135         104.135         104.441         104.441         109.436         109.436         115.143         115.143         126.492         126.492
  176          64.305          64.305          66.131          66.131          75.129          75.129          75.609          75.609          86.735          86.735          95.424          95.424          98.263          98.263         104.084         104.084         104.412         104.412         109.234         109.234         115.147         115.147         126.473         126.473
  177          64.414          64.414          66.314          66.314          75.070          75.070          75.517          75.517          86.877          86.877          95.478          95.478          98.329          98.329         104.034         104.034         104.383         104.383         109.035         109.035         115.151         115.151         126.455         126.455
  178          64.520          64.520          66.491          66.491          75.011          75.011          75.427          75.427          87.017          87.017          95.530          95.530          98.392          98.392         103.986         103.986         104.357         104.357         108.839         108.839         115.156         115.156         126.438         126.438
  179          64.622          64.622          66.663          66.663          74.953          74.953          75.339          75.339          87.156          87.156          95.581          95.581          98.451          98.451         103.939         103.939         104.332         104.332         108.648         108.648         115.161         115.161         126.421         126.421
  180          64.721          64.721          66.828          66.828          74.894          74.894          75.255          75.255          87.292          87.292          95.629          95.629          98.507          98.507         103.894         103.894         104.309         104.309         108.461         108.461         115.166         115.166         126.405         126.405
  181          64.817          64.817          66.986          66.986          74.836          74.836          75.173          75.173          87.425          87.425          95.676          95.676          98.560          98.560         103.851         103.851         104.287         104.287         108.280         108.280         115.172         115.172         126.390         126.390
  182          64.908          64.908          67.137          67.137          74.779          74.779          75.094          75.094          87.555          87.555          95.720          95.720          98.610          98.610         103.810         103.810         104.269         104.269         108.105         108.105         115.178         115.178         126.375         126.375
  183          64.996          64.996          67.281          67.281          74.723          74.723          75.019          75.019          87.680          87.680          95.762          95.762          98.655          98.655         103.771         103.771         104.252         104.252         107.936         107.936         115.184         115.184         126.362         126.362
  184          65.079          65.079          67.418          67.418          74.668          74.668          74.948          74.948          87.801          87.801          95.802          95.802          98.698          98.698         103.734         103.734         104.237         104.237         107.774         107.774         115.190         115.190         126.349         126.349
  185          65.157          65.157          67.546          67.546          74.615          74.615          74.880          74.880          87.916          87.916          95.839          95.839          98.737          98.737         103.699         103.699         104.225         104.225         107.621         107.621         115.196         115.196         126.337         126.337
  186          65.230          65.230          67.667          67.667          74.565          74.565          74.817          74.817          88.025          88.025          95.874          95.874          98.772          98.772         103.667         103.667         104.215         104.215         107.475         107.475         115.202         115.202         126.326         126.326
  187          65.298          65.298          67.778          67.778          74.517          74.517          74.758          74.758          88.126          88.126          95.906          95.906          98.804          98.804         103.637         103.637         104.208         104.208         107.339         107.339         115.207         115.207         126.316         126.316
  188          65.360          65.360          67.881          67.881          74.472          74.472          74.704          74.704          88.221          88.221          95.935          95.935          98.832          98.832         103.610         103.610         104.202         104.202         107.213         107.213         115.212         115.212         126.306         126.306
  189          65.417          65.417          67.974          67.974          74.430          74.430          74.655          74.655          88.307          88.307          95.962          95.962          98.857          98.857         103.585         103.585         104.199         104.199         107.097         107.097         115.217         115.217         126.298         126.298
  190          65.467          65.467          68.057          68.057          74.392          74.392          74.611          74.611          88.385          88.385          95.985          95.985          98.879          98.879         103.563         103.563         104.196         104.196         106.992         106.992         115.221         115.221         126.291         126.291
  191          65.511          65.511          68.130          68.130          74.359          74.359          74.572          74.572          88.453          88.453          96.006          96.006          98.898          98.898         103.544         103.544         104.196         104.196         106.900         106.900         115.225         115.225         126.284         126.284
  192          65.549          65.549          68.192          68.192          74.329          74.329          74.539          74.539          88.512          88.512          96.023          96.023          98.913          98.913         103.527         103.527         104.196         104.196         106.820         106.820         115.228         115.228         126.279         126.279
  193          65.581          65.581          68.244          68.244          74.305          74.305          74.512          74.512          88.561          88.561          96.038          96.038          98.926          98.926         103.514         103.514         104.197         104.197         106.754         106.754         115.230         115.230         126.274         126.274
  194          65.605          65.605          68.284          68.284          74.286          74.286          74.490          74.490          88.599          88.599          96.049          96.049          98.936          98.936         103.503         103.503         104.198         104.198         106.701         106.701         115.233         115.233         126.271         126.271
  195          65.622          65.622          68.313          68.313          74.272          74.272          74.475          74.475          88.627          88.627          96.057          96.057          98.942          98.942         103.496         103.496         104.199         104.199         106.663         106.663         115.234         115.234         126.268         126.268
  196          65.633          65.633          68.331          68.331          74.263          74.263          74.466          74.466          88.644          88.644          96.062          96.062          98.947          98.947         103.491         103.491         104.200         104.200         106.640         106.640         115.235         115.235         126.267         126.267
  197          65.637          65.637          68.337          68.337          74.260          74.260          74.463          74.463          88.649          88.649          96.063          96.063          98.948          98.948         103.490         103.490         104.200         104.200         106.633         106.633         115.235         115.235         126.266         126.266
  198          65.636          65.636          68.328          68.328          74.267          74.267          74.462          74.462          88.646          88.646          96.061          96.061          98.952          98.952         103.493         103.493         104.200         104.200         106.634         106.634         115.231         115.231         126.269         126.269
  199          65.634          65.634          68.304          68.304          74.285          74.285          74.461          74.461          88.635          88.635          96.054          96.054          98.964          98.964         103.501         103.501         104.201         104.201         106.638         106.638         115.219         115.219         126.276         126.276
  200          65.630          65.630          68.264          68.264          74.316          74.316          74.460          74.460          88.618          88.618          96.042          96.042          98.984          98.984         103.515         103.515         104.201         104.201         106.644         106.644         115.200         115.200         126.289         126.289
  201          65.625          65.625          68.208          68.208          74.358          74.358          74.458          74.458          88.593          88.593          96.026          96.026          99.013          99.013         103.535         103.535         104.202         104.202         106.652         106.652         115.172         115.172         126.306         126.306
  202          65.619          65.619          68.138          68.138          74.411          74.411          74.455          74.455          88.562          88.562          96.005          96.005          99.048          99.048         103.560         103.560         104.204         104.204         106.663         106.663         115.137         115.137         126.328         126.328
  203          65.611          65.611          68.054          68.054          74.452          74.452          74.474          74.474          88.525          88.525          95.980          95.980          99.092          99.092         103.591         103.591         104.206         104.206         106.676         106.676         115.094         115.094         126.355         126.355
  204          65.602          65.602          67.958          67.958          74.448          74.448          74.546          74.546          88.481          88.481          95.950          95.950          99.142          99.142         103.627         103.627         104.209         104.209         106.691         106.691         115.044         115.044         126.387         126.387
  205          65.592          65.592          67.849          67.849          74.444          74.444          74.626          74.626          88.431          88.431          95.917          95.917          99.199          99.199         103.668         103.668         104.212         104.212         106.708         106.708         114.987         114.987         126.422         126.422
  206          65.580          65.580          67.729          67.729          74.439          74.439          74.714          74.714          88.375          88.375          95.879          95.879          99.262          99.262         103.713         103.713         104.217         104.217         106.728         106.728         114.924         114.924         126.462         126.462
  207          65.566          65.566          67.599          67.599          74.434          74.434          74.808          74.808          88.314          88.314          95.838          95.838          99.331          99.331         103.764         103.764         104.222         104.222         106.749         106.749         114.853         114.853         126.506         126.506
  208          65.552          65.552          67.460          67.460          74.428          74.428          74.907          74.907          88.248          88.248          95.793          95.793          99.405          99.405         103.819         103.819         104.229         104.229         106.772         106.772         114.777         114.777         126.553         126.553
  209          65.536          65.536          67.312          67.312          74.421          74.421          75.012          75.012          88.177          88.177          95.745          95.745          99.484          99.484         103.878         103.878         104.238         104.238         106.796         106.796         114.695         114.695         126.604         126.604
  210          65.519          65.519          67.157          67.157          74.414          74.414          75.121          75.121          88.102          88.102          95.693          95.693          99.566          99.566         103.941         103.941         104.248         104.248         106.822         106.822         114.607         114.607         126.658         126.658
  211          65.500          65.500          66.995          66.995          74.407          74.407          75.233          75.233          88.023          88.023          95.639          95.639          99.653          99.653         104.008         104.008         104.261         104.261         106.850         106.850         114.514         114.514         126.715         126.715
  212          65.480          65.480          66.827          66.827          74.399          74.399          75.347          75.347          87.939          87.939          95.582          95.582          99.742          99.742         104.079         104.079         104.275         104.275         106.879         106.879         114.417         114.417         126.775         126.775
  213          65.459          65.459          66.653          66.653          74.390          74.390          75.464          75.464          87.853          87.853          95.523          95.523          99.834          99.834         104.153         104.153         104.293         104.293         106.908         106.908         114.315         114.315         126.837         126.837
  214          65.436          65.436          66.474          66.474          74.381          74.381          75.583          75.583          87.763          87.763          95.461          95.461          99.928          99.928         104.230         104.230         104.313         104.313         106.939         106.939         114.209         114.209         126.901         126.901
  215          65.413          65.413          66.291          66.291          74.371          74.371          75.703          75.703          87.670          87.670          95.397          95.397         100.022         100.022         104.310         104.310         104.337         104.337         106.971         106.971         114.100         114.100         126.968         126.968
  216          65.388          65.388          66.104          66.104          74.361          74.361          75.824          75.824          87.575          87.575          95.332          95.332         100.117         100.117         104.364         104.364         104.393         104.393         107.003         107.003         113.988         113.988         127.036         127.036
  217          65.361          65.361          65.914          65.914          74.351          74.351          75.945          75.945          87.478          87.478          95.264          95.264         100.211         100.211         104.395         104.395         104.478         104.478         107.036         107.036         113.872         113.872         127.105         127.105
  218          65.334          65.334          65.720          65.720          74.340          74.340          76.066          76.066          87.379          87.379          95.195          95.195         100.304         100.304         104.430         104.430         104.566         104.566         107.069         107.069         113.755         113.755         127.176         127.176
  219          65.305          65.305          65.523          65.523          74.328          74.328          76.188          76.188          87.278          87.278          95.125          95.125         100.395         100.395         104.470         104.470         104.656         104.656         107.102         107.102         113.636         113.636         127.247         127.247
  220          65.276          65.276          65.325          65.325          74.317          74.317          76.309          76.309          87.175          87.175          95.054          95.054         100.484         100.484         104.515         104.515         104.747         104.747         107.136         107.136         113.515         113.515         127.320         127.320
  221          65.124          65.124          65.245          65.245          74.304          74.304          76.429          76.429          87.072          87.072          94.981          94.981         100.570         100.570         104.564         104.564         104.841         104.841         107.169         107.169         113.394         113.394         127.393         127.393
  222          64.921          64.921          65.213          65.213          74.292          74.292          76.549          76.549          86.967          86.967          94.908          94.908         100.652         100.652         104.619         104.619         104.936         104.936         107.202         107.202         113.272         113.272         127.467         127.467
  223          64.716          64.716          65.180          65.180          74.279          74.279          76.667          76.667          86.862          86.862          94.834          94.834         100.730         100.730         104.680         104.680         105.033         105.033         107.234         107.234         113.151         113.151         127.541         127.541
  224          64.511          64.511          65.146          65.146          74.265          74.265          76.784          76.784          86.756          86.756          94.760          94.760         100.803         100.803         104.746         104.746         105.130         105.130         107.266         107.266         113.030         113.030         127.615         127.615
  225          64.304          64.304          65.111          65.111          74.252          74.252          76.901          76.901          86.650          86.650          94.685          94.685         100.872         100.872         104.818         104.818         105.229         105.229         107.296         107.296         112.910         112.910         127.689         127.689
  226          64.097          64.097          65.075          65.075          74.238          74.238          77.015          77.015          86.544          86.544          94.610          94.610         100.934         100.934         104.895         104.895         105.329         105.329         107.326         107.326         112.791         112.791         127.763         127.763
  227          63.889          63.889          65.038          65.038          74.223          74.223          77.128          77.128          86.438          86.438          94.534          94.534         100.991         100.991         104.978         104.978         105.430         105.430         107.355         107.355         112.675         112.675         127.836         127.836
  228          63.680          63.680          65.000          65.000          74.209          74.209          77.240          77.240          86.332          86.332          94.459          94.459         101.042         101.042         105.066         105.066         105.531         105.531         107.382         107.382         112.561         112.561         127.909         127.909
  229          63.472          63.472          64.961          64.961          74.194          74.194          77.349          77.349          86.226          86.226          94.383          94.383         101.087         101.087         105.159         105.159         105.633         105.633         107.408         107.408         112.451         112.451         127.981         127.981
  230          63.263          63.263          64.921          64.921          74.178          74.178          77.457          77.457          86.121          86.121          94.308          94.308         101.125         101.125         105.256         105.256         105.736         105.736         107.433         107.433         112.345         112.345         128.052         128.052
  231          63.054          63.054          64.881          64.881          74.163          74.163          77.562          77.562          86.017          86.017          94.233          94.233         101.158         101.158         105.357         105.357         105.838         105.838         107.456         107.456         112.243         112.243         128.123         128.123
  232          62.846          62.846          64.839          64.839          74.147          74.147          77.666          77.666          85.913          85.913          94.158          94.158         101.184         101.184         105.462         105.462         105.941         105.941         107.477         107.477         112.145         112.145         128.193         128.193
  233          62.639          62.639          64.797          64.797          74.131          74.131          77.768          77.768          85.811          85.811          94.083          94.083         101.204         101.204         105.568         105.568         106.044         106.044         107.497         107.497         112.054         112.054         128.261         128.261
  234          62.432          62.432          64.754          64.754          74.115          74.115          77.867          77.867          85.709          85.709          94.009          94.009         101.218         101.218         105.677         105.677         106.147         106.147         107.515         107.515         111.968         111.968         128.329         128.329
  235          62.226          62.226          64.711          64.711          74.099          74.099          77.964          77.964          85.609          85.609          93.935          93.935         101.226         101.226         105.786         105.786         106.250         106.250         107.533         107.533         111.889         111.889         128.395         128.395
  236          62.020          62.020          64.667          64.667          74.083          74.083          78.059          78.059          85.510          85.510          93.862          93.862         101.228         101.228         105.895         105.895         106.353         106.353         107.550         107.550         111.816         111.816         128.460         128.460
  237          61.816          61.816          64.622          64.622          74.066          74.066          78.151          78.151          85.413          85.413          93.790          93.790         101.224         101.224         106.002         106.002         106.455         106.455         107.567         107.567         111.751         111.751         128.524         128.524
  238          61.614          61.614          64.577          64.577          74.050          74.050          78.241          78.241          85.317          85.317          93.718          93.718         101.215         101.215         106.105         106.105         106.558         106.558         107.586         107.586         111.694         111.694         128.586         128.586
  239          61.412          61.412          64.531          64.531          74.033          74.033          78.328          78.328          85.223          85.223          93.647          93.647         101.201         101.201         106.204         106.204         106.659         106.659         107.607         107.607         111.645         111.645         128.646         128.646
  240          61.212          61.212          64.485          64.485          74.016          74.016          78.413          78.413          85.130          85.130          93.577          93.577         101.182         101.182         106.295         106.295         106.760         106.760         107.632         107.632         111.604         111.604         128.706         128.706
  241          61.014          61.014          64.438          64.438          73.999          73.999          78.495          78.495          85.040          85.040          93.508          93.508         101.157         101.157         106.378         106.378         106.861         106.861         107.662         107.662         111.572         111.572         128.763         128.763
  242          60.817          60.817          64.391          64.391          73.983          73.983          78.575          78.575          84.951          84.951          93.440          93.440         101.127         101.127         106.450         106.450         106.961         106.961         107.700         107.700         111.548         111.548         128.819         128.819
  243          60.623          60.623          64.343          64.343          73.966          73.966          78.652          78.652          84.865          84.865          93.372          93.372         101.092         101.092         106.510         106.510         107.060         107.060         107.745         107.745         111.533         111.533         128.874         128.874
  244          60.430          60.430          64.295          64.295          73.949          73.949          78.726          78.726          84.780          84.780          93.306          93.306         101.053         101.053         106.557         106.557         107.158         107.158         107.801         107.801         111.526         111.526         128.926         128.926
  245          60.239          60.239          64.247          64.247          73.932          73.932          78.798          78.798          84.698          84.698          93.240          93.240         101.009         101.009         106.590         106.590         107.256         107.256         107.865         107.865         111.528         111.528         128.977         128.977
  246          60.051          60.051          64.199          64.199          73.915          73.915          78.867          78.867          84.618          84.618          93.175          93.175         100.960         100.960         106.611         106.611         107.352         107.352         107.938         107.938         111.538         111.538         129.027         129.027
  247          59.865          59.865          64.150          64.150          73.899          73.899          78.933          78.933          84.541          84.541          93.112          93.112         100.907         100.907         106.621         106.621         107.448         107.448         108.019         108.019         111.556         111.556         129.074         129.074
  248          59.681          59.681          64.102          64.102          73.882          73.882          78.996          78.996          84.466          84.466          93.049          93.049         100.850         100.850         106.621         106.621         107.542         107.542         108.105         108.105         111.582         111.582         129.120         129.120
  249          59.500          59.500          64.053          64.053          73.866          73.866          79.056          79.056          84.393          84.393          92.988          92.988         100.788         100.788         106.613         106.613         107.635         107.635         108.195         108.195         111.615         111.615         129.164         129.164
  250          59.321          59.321          64.005          64.005          73.850          73.850          79.114          79.114          84.323          84.323          92.928          92.928         100.723         100.723         106.598         106.598         107.727         107.727         108.288         108.288         111.656         111.656         129.206         129.206
  251          59.145          59.145          63.956          63.956          73.833          73.833          79.168          79.168          84.256          84.256          92.869          92.869         100.654         100.654         106.579         106.579         107.818         107.818         108.382         108.382         111.704         111.704         129.247         129.247
  252          58.972          58.972          63.907          63.907          73.817          73.817          79.220          79.220          84.191          84.191          92.811          92.811         100.581         100.581         106.557         106.557         107.908         107.908         108.477         108.477         111.758         111.758         129.286         129.286
  253          58.802          58.802          63.859          63.859          73.802          73.802          79.269          79.269          84.129          84.129          92.754          92.754         100.504         100.504         106.532         106.532         107.996         107.996         108.571         108.571         111.819         111.819         129.323         129.323
  254          58.634          58.634          63.811          63.811          73.786          73.786          79.314          79.314          84.070          84.070          92.698          92.698         100.425         100.425         106.505         106.505         108.083         108.083         108.663         108.663         111.885         111.885         129.358         129.358
  255          58.470          58.470          63.763          63.763          73.770          73.770          79.358          79.358          84.013          84.013          92.644          92.644         100.342         100.342         106.477         106.477         108.169         108.169         108.754         108.754         111.956         111.956         129.392         129.392
  256          58.309          58.309          63.715          63.715          73.755          73.755          79.398          79.398          83.960          83.960          92.591          92.591         100.257         100.257         106.448         106.448         108.253         108.253         108.842         108.842         112.033         112.033         129.424         129.424
  257          58.150          58.150          63.667          63.667          73.740          73.740          79.435          79.435          83.909          83.909          92.539          92.539         100.168         100.168         106.420         106.420         108.335         108.335         108.928         108.928         112.114         112.114         129.454         129.454
  258          57.995          57.995          63.620          63.620          73.725          73.725          79.470          79.470          83.860          83.860          92.488          92.488         100.078         100.078         106.392         106.392         108.416         108.416         109.011         109.011         112.199         112.199         129.483         129.483
  259          57.844          57.844          63.574          63.574          73.711          73.711          79.501          79.501          83.815          83.815          92.439          92.439          99.986          99.986         106.365         106.365         108.496         108.496         109.091         109.091         112.288         112.288         129.510         129.510
  260          57.695          57.695          63.527          63.527          73.697          73.697          79.530          79.530          83.773          83.773          92.390          92.390          99.892          99.892         106.339         106.339         108.574         108.574         109.169         109.169         112.379         112.379         129.536         129.536
  261          57.551          57.551          63.482          63.482          73.683          73.683          79.557          79.557          83.733          83.733          92.343          92.343          99.796          99.796         106.313         106.313         108.650         108.650         109.243         109.243         112.474         112.474         129.560         129.560
  262          57.409          57.409          63.437          63.437          73.669          73.669          79.581          79.581          83.695          83.695          92.297          92.297          99.699          99.699         106.289         106.289         108.724         108.724         109.314         109.314         112.571         112.571         129.582         129.582
  263          57.271          57.271          63.392          63.392          73.656          73.656          79.602          79.602          83.661          83.661          92.253          92.253          99.601          99.601         106.267         106.267         108.797         108.797         109.382         109.382         112.669         112.669         129.603         129.603
  264          57.137          57.137          63.348          63.348          73.643          73.643          79.622          79.622          83.629          83.629          92.210          92.210          99.503          99.503         106.245         106.245         108.868         108.868         109.447         109.447         112.769         112.769         129.623         129.623
  265          57.006          57.006          63.305          63.305          73.630          73.630          79.638          79.638          83.599          83.599          92.168          92.168          99.404          99.404         106.225         106.225         108.937         108.937         109.510         109.510         112.869         112.869         129.641         129.641
  266          56.879          56.879          63.263          63.263          73.618          73.618          79.653          79.653          83.572          83.572          92.127          92.127          99.305          99.305         106.207         106.207         109.005         109.005         109.570         109.570         112.971         112.971         129.657         129.657
  267          56.756          56.756          63.221          63.221          73.606          73.606          79.666          79.666          83.547          83.547          92.088          92.088          99.206          99.206         106.189         106.189         109.070         109.070         109.627         109.627         113.072         113.072         129.673         129.673
  268          56.636          56.636          63.181          63.181          73.594          73.594          79.676          79.676          83.524          83.524          92.049          92.049          99.108          99.108         106.174         106.174         109.134         109.134         109.681         109.681         113.173         113.173         129.687         129.687
  269          56.520          56.520          63.141          63.141          73.583          73.583          79.685          79.685          83.503          83.503          92.013          92.013          99.011          99.011         106.159         106.159         109.195         109.195         109.733         109.733         113.274         113.274         129.700         129.700
  270          56.408          56.408          63.102          63.102          73.572          73.572          79.692          79.692          83.485          83.485          91.977          91.977          98.914          98.914         106.146         106.146         109.255         109.255         109.783         109.783         113.374         113.374         129.712         129.712
  271          56.300          56.300          63.064          63.064          73.561          73.561          79.698          79.698          83.468          83.468          91.943          91.943          98.819          98.819         106.133         106.133         109.313         109.313         109.830         109.830         113.472         113.472         129.723         129.723
  272          56.195          56.195          63.027          63.027          73.551          73.551          79.702          79.702          83.453          83.453          91.910          91.910          98.725          98.725         106.122         106.122         109.369         109.369         109.875         109.875         113.569         113.569         129.733         129.733
  273          56.095          56.095          62.992          62.992          73.541          73.541          79.705          79.705          83.439          83.439          91.878          91.878          98.633          98.633         106.112         106.112         109.423         109.423         109.918         109.918         113.664         113.664         129.741         129.741
  274          55.999          55.999          62.957          62.957          73.531          73.531          79.706          79.706          83.428          83.428          91.848          91.848          98.543          98.543         106.104         106.104         109.475         109.475         109.959         109.959         113.758         113.758         129.749         129.749
  275          55.906          55.906          62.924          62.924          73.522          73.522          79.707          79.707          83.417          83.417          91.819          91.819          98.455          98.455         106.096         106.096         109.524         109.524         109.997         109.997         113.848         113.848         129.756         129.756
  276          55.818          55.818          62.891          62.891          73.514          73.514          79.707          79.707          83.408          83.408          91.791          91.791          98.370          98.370         106.088         106.088         109.572         109.572         110.034         110.034         113.937         113.937         129.762         129.762
  277          55.733          55.733          62.860          62.860          73.505          73.505          79.706          79.706          83.400          83.400          91.764          91.764          98.287          98.287         106.082         106.082         109.618         109.618         110.069         110.069         114.023         114.023         129.767         129.767
  278          55.652          55.652          62.831          62.831          73.497          73.497          79.704          79.704          83.393          83.393          91.739          91.739          98.207          98.207         106.077         106.077         109.661         109.661         110.102         110.102         114.105         114.105         129.772         129.772
  279          55.576          55.576          62.802          62.802          73.490          73.490          79.702          79.702          83.387          83.387          91.715          91.715          98.130          98.130         106.072         106.072         109.702         109.702         110.133         110.133         114.185         114.185         129.776         129.776
  280          55.504          55.504          62.775          62.775          73.483          73.483          79.699          79.699          83.382          83.382          91.692          91.692          98.056          98.056         106.067         106.067         109.742         109.742         110.162         110.162         114.261         114.261         129.779         129.779
  281          55.435          55.435          62.749          62.749          73.476          73.476          79.696          79.696          83.378          83.378          91.671          91.671          97.986          97.986         106.064         106.064         109.779         109.779         110.189         110.189         114.334         114.334         129.782         129.782
  282          55.371          55.371          62.725          62.725          73.470          73.470          79.692          79.692          83.374          83.374          91.651          91.651          97.919          97.919         106.060         106.060         109.813         109.813         110.215         110.215         114.403         114.403         129.785         129.785
  283          55.311          55.311          62.702          62.702          73.464          73.464          79.689          79.689          83.371          83.371          91.632          91.632          97.856          97.856         106.058         106.058         109.846         109.846         110.239         110.239         114.468         114.468         129.787         129.787
  284          55.255          55.255          62.681          62.681          73.458          73.458          79.685          79.685          83.368          83.368          91.615          91.615          97.796          97.796         106.055         106.055         109.877         109.877         110.261         110.261         114.530         114.530         129.788         129.788
  285          55.203          55.203          62.661          62.661          73.453          73.453          79.681          79.681          83.366          83.366          91.599          91.599          97.740          97.740         106.053         106.053         109.905         109.905         110.281         110.281         114.587         114.587         129.790         129.790
  286          55.155          55.155          62.642          62.642          73.448          73.448          79.677          79.677          83.365          83.365          91.584          91.584          97.689          97.689         106.052         106.052         109.931         109.931         110.300         110.300         114.640         114.640         129.790         129.790
  287          55.111          55.111          62.625          62.625          73.444          73.444          79.674          79.674          83.363          83.363          91.570          91.570          97.641          97.641         106.050         106.050         109.955         109.955         110.317         110.317         114.689         114.689         129.791         129.791
  288          55.072          55.072          62.610          62.610          73.440          73.440          79.670          79.670          83.362          83.362          91.558          91.558          97.598          97.598         106.049         106.049         109.976         109.976         110.332         110.332         114.734         114.734         129.792         129.792
  289          55.037          55.037          62.596          62.596          73.437          73.437          79.667          79.667          83.362          83.362          91.547          91.547          97.559          97.559         106.048         106.048         109.996         109.996         110.346         110.346         114.774         114.774         129.792         129.792
  290          55.005          55.005          62.584          62.584          73.434          73.434          79.664          79.664          83.361          83.361          91.537          91.537          97.525          97.525         106.048         106.048         110.013         110.013         110.358         110.358         114.809         114.809         129.792         129.792
  291          54.978          54.978          62.573          62.573          73.431          73.431          79.662          79.662          83.361          83.361          91.529          91.529          97.494          97.494         106.047         106.047         110.028         110.028         110.369         110.369         114.840         114.840         129.792         129.792
  292          54.955          54.955          62.564          62.564          73.429          73.429          79.659          79.659          83.360          83.360          91.522          91.522          97.469          97.469         106.047         106.047         110.040         110.040         110.377         110.377         114.867         114.867         129.793         129.793
  293          54.937          54.937          62.557          62.557          73.427          73.427          79.657          79.657          83.360          83.360          91.516          91.516          97.448          97.448         106.046         106.046         110.050         110.050         110.385         110.385         114.888         114.888         129.793         129.793
  294          54.922          54.922          62.551          62.551          73.425          73.425          79.656          79.656          83.360          83.360          91.511          91.511          97.432          97.432         106.046         106.046         110.058         110.058         110.390         110.390         114.905         114.905         129.793         129.793
  295          54.912          54.912          62.547          62.547          73.424          73.424          79.655          79.655          83.360          83.360          91.508          91.508          97.420          97.420         106.046         106.046         110.064         110.064         110.394         110.394         114.917         114.917         129.793         129.793
  296          54.905          54.905          62.545          62.545          73.424          73.424          79.654          79.654          83.360          83.360          91.506          91.506          97.413          97.413         106.046         106.046         110.068         110.068         110.397         110.397         114.924         114.924         129.793         129.793
  297          54.903          54.903          62.544          62.544          73.423          73.423          79.654          79.654          83.360          83.360          91.506          91.506          97.410          97.410         106.046         106.046         110.069         110.069         110.398         110.398         114.927         114.927         129.793         129.793
  298          54.462          55.337          62.036          63.047          73.409          73.438          79.305          79.984          82.822          83.906          91.456          91.556          97.365          97.456         106.040         106.055         110.033         110.105         110.365         110.433         114.815         115.040         129.780         129.803
  299          54.015          55.763          61.524          63.546          73.394          73.453          78.934          80.295          82.294          84.459          91.405          91.605          97.319          97.500         106.039         106.068         109.997         110.141         110.336         110.472         114.705         115.153         129.767         129.812
  300          53.561          56.180          61.008          64.039          73.379          73.468          78.541          80.590          81.780          85.016          91.355          91.655          97.274          97.542         106.043         106.085         109.962         110.178         110.311         110.513         114.596         115.267         129.751         129.819
  301          53.100          56.589          60.487          64.529          73.364          73.483          78.124          80.869          81.280          85.575          91.305          91.704          97.230          97.583         106.051         106.106         109.927         110.215         110.289         110.557         114.489         115.382         129.734         129.825
  302          52.634          56.988          59.962          65.013          73.348          73.498          77.683          80.796          81.133          86.135          91.255          91.754          97.188          97.621         106.064         106.129         109.893         110.252         110.271         110.603         114.384         115.497         129.715         129.829
  303          52.162          57.377          59.433          65.492          73.333          73.513          77.218          80.330          81.384          86.694          91.205          91.803          97.147          97.657         106.083         106.156         109.859         110.257         110.290         110.650         114.282         115.612         129.695         129.832
  304          51.685          57.755          58.899          65.966          73.317          73.529          76.731          79.880          81.621          87.252          91.155          91.851          97.109          97.689         106.107         106.185         109.825         110.247         110.328         110.698         114.184         115.727         129.674         129.833
  305          51.202          58.120          58.362          66.435          73.301          73.546          76.223          79.447          81.846          87.806          91.105          91.900          97.074          97.718         106.136         106.217         109.792         110.241         110.366         110.747         114.090         115.843         129.650         129.832
  306          50.715          57.820          58.472          66.898          73.285          73.563          75.698          79.028          82.059          88.357          91.055          91.948          97.042          97.743         106.170         106.252         109.759         110.239         110.404         110.796         114.000         115.958         129.625         129.830
  307          50.222          57.275          58.809          67.356          73.269          73.581          75.159          78.622          82.260          88.904          91.005          91.996          97.014          97.764         106.211         106.289         109.727         110.241         110.442         110.843         113.916         116.073         129.599         129.826
  308          49.725          56.725          59.129          67.807          73.252          73.601          74.610          78.227          82.450          89.445          90.955          92.043          96.991          97.780         106.256         106.328         109.695         110.247         110.480         110.888         113.838         116.187         129.571         129.821
  309          49.224          56.172          59.429          68.252          73.236          73.622          74.055          77.841          82.628          89.980          90.905          92.090          96.971          97.792         106.308         106.369         109.664         110.257         110.519         110.931         113.768         116.302         129.542         129.814
  310          48.718          55.614          59.708          68.690          73.219          73.498          73.646          77.464          82.796          90.509          90.856          92.137          96.957          97.800         106.365         106.413         109.633         110.271         110.558         110.969         113.707         116.415         129.511         129.805
  311          48.208          55.053          59.962          69.121          72.944          73.202          73.672          77.094          82.952          90.807          91.031          92.183          96.947          97.803         106.427         106.458         109.602         110.290         110.597         111.002         113.655         116.529         129.479         129.795
  312          47.694          54.488          60.187          69.542          72.397          73.184          73.702          76.730          83.098          90.758          91.546          92.228          96.943          97.801         106.494         106.505         109.572         110.312         110.635         111.028         113.615         116.642         129.445         129.784
  313          47.177          53.919          60.379          69.954          71.862          73.166          73.737          76.373          83.234          90.709          92.052          92.274          96.944          97.795         106.554         106.566         109.543         110.338         110.674         111.046         113.587         116.755         129.410         129.771
  314          46.655          53.346          60.532          70.355          71.346          73.149          73.778          76.022          83.360          90.660          92.318          92.549          96.951          97.784         106.605         106.643         109.514         110.368         110.714         111.057         113.572         116.867         129.373         129.757
  315          46.130          52.770          60.641          70.741          70.853          73.131          73.829          75.677          83.476          90.612          92.362          93.037          96.963          97.769         106.657         106.725         109.485         110.403         110.753         111.058         113.572         116.978         129.336         129.741
  316          45.601          52.190          60.698          70.391          71.111          73.112          73.891          75.340          83.582          90.564          92.405          93.515          96.983          97.749         106.712         106.810         109.458         110.441         110.792         111.050         113.585         117.089         129.297         129.724
  317          45.069          51.606          60.698          69.964          71.460          73.094          73.970          75.011          83.679          90.516          92.448          93.982          97.008          97.726         106.767         106.900         109.430         110.483         110.831         111.033         113.613         117.200         129.256         129.705
  318          44.534          51.019          60.633          69.579          71.782          73.075          74.070          74.692          83.767          90.469          92.490          94.437          97.042          97.698         106.824         106.993         109.404         110.529         110.870         111.007         113.655         117.310         129.215         129.685
  319          43.995          50.429          60.498          69.238          72.071          73.056          74.199          74.384          83.847          90.422          92.531          94.878          97.084          97.668         106.883         107.089         109.377         110.579         110.909         110.974         113.709         117.419         129.172         129.664
  320          43.453          49.835          60.292          68.942          72.321          73.037          74.091          74.362          83.918          90.375          92.572          95.302          97.136          97.633         106.942         107.187         109.352         110.632         110.934         110.948         113.777         117.528         129.128         129.642
  321          42.908          49.237          60.012          68.689          72.528          73.018          73.814          74.562          83.982          90.329          92.611          95.705          97.203          97.596         107.003         107.288         109.327         110.690         110.890         110.987         113.855         117.636         129.083         129.618
  322          42.361          48.636          59.663          68.473          72.694          72.998          73.557          74.799          84.038          90.283          92.650          96.079          97.292          97.556         107.065         107.391         109.303         110.750         110.841         111.026         113.944         117.744         129.037         129.593
  323          41.810          48.032          59.249          68.286          72.823          72.979          73.325          75.067          84.087          90.237          92.688          96.411          97.416          97.513         107.127         107.496         109.279         110.791         110.815         111.065         114.042         117.851         128.990         129.567
  324          41.257          47.424          58.776          68.117          72.922          72.959          73.121          75.361          84.130          90.192          92.725          96.681          97.468          97.593         107.189         107.602         109.256         110.739         110.883         111.104         114.149         117.958         128.941         129.539
  325          40.701          46.813          58.251          67.956          72.939          72.949          72.998          75.673          84.166          90.147          92.762          96.881          97.420          97.831         107.251         107.709         109.233         110.687         110.954         111.142         114.263         118.064         128.892         129.511
  326          40.143          46.199          57.683          67.792          72.811          72.919          73.057          75.997          84.197          90.103          92.797          97.023          97.371          98.117         107.313         107.816         109.211         110.638         111.029         111.181         114.384         118.169         128.842         129.482
  327          39.582          45.581          57.075          67.617          72.712          72.899          73.103          76.328          84.222          90.059          92.831          97.130          97.321          98.428         107.373         107.924         109.190         110.591         111.107         111.219         114.512         118.274         128.791         129.451
  328          39.018          44.961          56.436          67.425          72.651          72.879          73.140          76.665          84.243          90.015          92.865          97.218          97.269          98.748         107.432         108.032         109.169         110.548         111.187         111.257         114.645         118.379         128.739         129.419
  329          38.453          44.337          55.769          67.212          72.627          72.858          73.169          77.004          84.259          89.972          92.897          97.216          97.295          99.068         107.488         108.140         109.149         110.511         111.271         111.295         114.783         118.483         128.687         129.387
  330          37.885          43.710          55.078          66.977          72.638          72.838          73.193          77.343          84.271          89.930          92.928          97.163          97.365          99.382         107.541         108.247         109.129         110.481         111.333         111.357         114.926         118.587         128.634         129.354
  331          37.315          43.080          54.367          66.720          72.681          72.817          73.212          77.682          84.280          89.888          92.958          97.108          97.430          99.688         107.590         108.354         109.110         110.458         111.370         111.445         115.074         118.690         128.580         129.319
  332          36.742          42.447          53.638          66.443          72.752          72.797          73.228          78.019          84.285          89.846          92.987          97.054          97.493          99.985         107.634         108.460         109.092         110.445         111.407         111.536         115.226         118.793         128.525         129.284
  333          36.168          41.812          52.894          66.147          72.776          72.847          73.241          78.355          84.288          89.805          93.015          96.999          97.552         100.271         107.673         108.565         109.075         110.441         111.444         111.629         115.382         118.895         128.470         129.248
  334          35.592          41.173          52.136          65.835          72.756          72.961          73.252          78.688          84.288          89.765          93.042          96.944          97.608         100.547         107.706         108.669         109.058         110.447         111.481         111.723         115.542         118.997         128.415         129.212
  335          35.014          40.531          51.366          65.509          72.735          73.091          73.261          79.018          84.286          89.725          93.067          96.890          97.662         100.812         107.732         108.772         109.041         110.465         111.518         111.819         115.705         119.099         128.359         129.174
  336          34.434          39.887          50.586          65.171          72.715          73.235          73.268          79.344          84.282          89.685          93.091          96.836          97.713         101.066         107.752         108.874         109.025         110.493         111.554         111.916         115.871         119.201         128.302         129.136
  337          33.853          39.240          49.797          64.824          72.694          73.274          73.388          79.667          84.277          89.647          93.114          96.782          97.761         101.310         107.765         108.975         109.010         110.532         111.589         112.014         116.041         119.302         128.245         129.098
  338          33.270          38.590          48.998          64.469          72.674          73.278          73.550          79.987          84.270          89.608          93.135          96.729          97.805         101.542         107.772         108.996         109.075         110.582         111.625         112.113         116.213         119.402         128.188         129.058
  339          32.685          37.937          48.192          64.107          72.653          73.282          73.717          80.303          84.263          89.571          93.155          96.677          97.847         101.764         107.773         108.982         109.173         110.642         111.660         112.212         116.389         119.503         128.131         129.019
  340          32.098          37.282          47.379          63.739          72.633          73.285          73.889          80.615          84.255          89.533          93.174          96.626          97.884         101.977         107.768         108.968         109.270         110.711         111.695         112.311         116.566         119.603         128.073         128.979
  341          31.511          36.624          46.559          63.368          72.612          73.286          74.063          80.923          84.246          89.497          93.191          96.576          97.917         102.179         107.759         108.956         109.366         110.789         111.729         112.410         116.746         119.702         128.015         128.938
  342          30.921          35.964          45.733          62.993          72.592          73.288          74.240          81.226          84.238          89.461          93.207          96.527          97.946         102.372         107.746         108.944         109.461         110.873         111.763         112.509         116.929         119.802         127.958         128.897
  343          30.331          35.301          44.901          62.616          72.572          73.288          74.416          81.526          84.229          89.425          93.221          96.480          97.971         102.557         107.730         108.932         109.554         110.963         111.797         112.607         117.113         119.901         127.900         128.856
  344          29.739          34.635          44.064          62.237          72.552          73.288          74.593          81.821          84.221          89.391          93.234          96.433          97.992         102.733         107.712         108.921         109.647         111.058         111.830         112.704         117.300         119.999         127.842         128.814
  345          29.146          33.967          43.222          61.858          72.532          73.288          74.769          82.113          84.213          89.356          93.245          96.389          98.007         102.901         107.692         108.911         109.738         111.157         111.863         112.800         117.487         120.098         127.784         128.773
  346          28.551          33.297          42.375          61.477          72.512          73.287          74.944          82.400          84.205          89.323          93.254          96.345          98.018         103.062         107.671         108.901         109.828         111.259         111.895         112.895         117.677         120.195         127.726         128.731
  347          27.956          32.625          41.524          61.097          72.493          73.285          75.117          82.682          84.199          89.290          93.262          96.304          98.025         103.216         107.649         108.892         109.917         111.363         111.927         112.988         117.867         120.293         127.668         128.689
  348          27.360          31.950          40.669          60.718          72.473          73.284          75.287          82.961          84.193          89.258          93.268          96.264          98.026         103.364         107.627         108.883         110.005         111.468         111.958         113.080         118.059         120.390         127.611         128.647
  349          26.762          31.273          39.810          60.340          72.454          73.282          75.455          83.235          84.188          89.226          93.273          96.225          98.022         103.506         107.606         108.875         110.091         111.574         111.989         113.169         118.251         120.486         127.553         128.605
  350          26.164          30.593          38.947          59.964          72.435          73.279          75.620          83.505          84.184          89.195          93.276          96.188          98.014         103.642         107.585         108.867         110.177         111.680         112.020         113.257         118.444         120.582         127.496         128.563
  351          25.564          29.912          38.081          59.589          72.416          73.277          75.781          83.770          84.181          89.164          93.277          96.153          98.001         103.773         107.564         108.860         110.262         111.785         112.050         113.342         118.637         120.677         127.440         128.521
  352          24.964          29.229          37.212          59.217          72.398          73.274          75.939          84.032          84.180          89.135          93.276          96.120          97.983         103.900         107.545         108.853         110.346         111.889         112.079         113.425         118.830         120.772         127.383         128.479
  353          24.363          28.543          36.339          58.848          72.379          73.271          76.094          84.179          84.289          89.106          93.274          96.089          97.960         104.022         107.526         108.847         110.429         111.991         112.108         113.505         119.023         120.866         127.327         128.438
  354          23.761          27.855          35.464          58.482          72.361          73.268          76.244          84.180          84.541          89.077          93.269          96.059          97.934         104.140         107.509         108.841         110.510         112.092         112.136         113.583         119.215         120.959         127.271         128.397
  355          23.158          27.166          34.585          58.120          72.344          73.265          76.391          84.183          84.789          89.049          93.263          96.031          97.902         104.254         107.493         108.835         110.591         112.164         112.190         113.658         119.407         121.051         127.216         128.356
  356          22.555          26.475          33.704          57.762          72.326          73.261          76.533          84.186          85.033          89.022          93.255          96.004          97.867         104.365         107.478         108.831         110.671         112.191         112.286         113.731         119.598         121.143         127.161         128.315
  357          21.951          25.781          32.820          57.408          72.309          73.258          76.672          84.191          85.273          88.996          93.245          95.980          97.828         104.472         107.465         108.826         110.749         112.218         112.379         113.800         119.787         121.233         127.106         128.275
  358          21.346          25.086          31.934          57.059          72.292          73.254          76.806          84.197          85.509          88.970          93.233          95.957          97.785         104.576         107.452         108.822         110.827         112.243         112.470         113.867         119.975         121.322         127.052         128.235
  359          20.741          24.389          31.045          56.714          72.275          73.251          76.937          84.205          85.740          88.945          93.219          95.935          97.739         104.678         107.441         108.818         110.904         112.269         112.557         113.931         120.161         121.411         126.998         128.196
  360          20.135          23.691          30.154          56.375          72.259          73.247          77.063          84.214          85.967          88.921          93.203          95.915          97.689         104.777         107.430         108.815         110.979         112.294         112.641         113.992         120.346         121.498         126.945         128.157
  361          19.529          22.990          29.261          56.042          72.243          73.243          77.184          84.224          86.190          88.897          93.185          95.897          97.637         104.873         107.421         108.812         111.053         112.318         112.723         114.050         120.528         121.583         126.892         128.119
  362          18.923          22.289          28.366          55.715          72.228          73.239          77.302          84.235          86.408          88.874          93.165          95.880          97.582         104.968         107.412         108.809         111.127         112.341         112.801         114.105         120.708         121.667         126.840         128.082
  363          18.315          21.585          27.468          55.394          72.213          73.236          77.415          84.248          86.622          88.852          93.143          95.865          97.525         105.059         107.404         108.807         111.199         112.364         112.875         114.157         120.886         121.750         126.788         128.045
  364          17.708          20.880          26.569          55.080          72.198          73.232          77.523          84.261          86.833          88.830          93.119          95.851          97.466         105.149         107.396         108.805         111.269         112.386         112.947         114.207         121.061         121.831         126.737         128.009
  365          17.100          20.174          25.668          54.773          72.183          73.228          77.628          84.276          87.039          88.809          93.092          95.839          97.405         105.237         107.389         108.803         111.339         112.408         113.015         114.253         121.233         121.910         126.686         127.974
  366          16.491          19.466          24.766          54.473          72.169          73.224          77.728          84.292          87.241          88.789          93.063          95.828          97.343         105.322         107.382         108.801         111.407         112.429         113.080         114.297         121.401         121.988         126.635         127.940
  367          15.883          18.757          23.862          54.181          72.156          73.220          77.824          84.308          87.438          88.770          93.033          95.818          97.280         105.406         107.376         108.800         111.474         112.449         113.142         114.338         121.567         122.063         126.585         127.906
  368          15.274          18.046          22.956          53.897          72.143          73.217          77.916          84.326          87.632          88.751          92.999          95.809          97.216         105.488         107.369         108.799         111.539         112.468         113.201         114.376         121.729         122.137         126.536         127.874
  369          14.665          17.334          22.049          53.621          72.130          73.213          78.004          84.344          87.822          88.733          92.964          95.801          97.152         105.567         107.362         108.798         111.603         112.487         113.257         114.412         121.888         122.209         126.486         127.842
  370          14.055          16.621          21.140          53.354          72.118          73.210          78.088          84.362          88.008          88.716          92.927          95.794          97.087         105.645         107.356         108.797         111.665         112.505         113.309         114.445         122.043         122.278         126.437         127.812
  371          13.445          15.907          20.230          53.095          72.106          73.206          78.167          84.381          88.189          88.699          92.887          95.789          97.023         105.721         107.348         108.797         111.725         112.522         113.359         114.476         122.195         122.345         126.389         127.782
  372          12.835          15.192          19.319          52.846          72.095          73.203          78.243          84.401          88.367          88.683          92.844          95.784          96.959         105.796         107.341         108.796         111.784         112.539         113.406         114.504         122.342         122.410         126.340         127.753
  373          12.225          14.475          18.406          52.606          72.084          73.199          78.315          84.420          88.541          88.668          92.800          95.780          96.896         105.868         107.333         108.796         111.841         112.555         113.450         114.530         122.472         122.486         126.292         127.726
  374          11.615          13.758          17.493          52.376          72.073          73.196          78.382          84.440          88.653          88.710          92.753          95.776          96.834         105.939         107.324         108.796         111.896         112.570         113.491         114.553         122.532         122.625         126.244         127.700
  375          11.004          13.039          16.578          52.156          72.064          73.193          78.446          84.460          88.640          88.876          92.704          95.774          96.773         106.008         107.315         108.796         111.949         112.585         113.529         114.575         122.589         122.760         126.197         127.674
  376          10.394          12.320          15.662          51.946          72.054          73.190          78.506          84.480          88.627          89.038          92.652          95.771          96.714         106.075         107.305         108.796         112.000         112.598         113.565         114.594         122.644         122.891         126.150         127.651
  377           9.783          11.600          14.746          51.747          72.045          73.187          78.563          84.499          88.615          89.196          92.598          95.770          96.656         106.140         107.294         108.796         112.049         112.611         113.599         114.612         122.696         123.017         126.103         127.628
  378           9.172          10.879          13.828          51.558          72.037          73.185          78.615          84.518          88.603          89.350          92.542          95.769          96.601         106.203         107.282         108.796         112.095         112.623         113.629         114.627         122.745         123.139         126.056         127.606
  379           8.561          10.157          12.910          51.381          72.029          73.182          78.664          84.537          88.592          89.500          92.483          95.768          96.548         106.265         107.269         108.797         112.139         112.635         113.658         114.641         122.791         123.256         126.010         127.586
  380           7.950           9.435          11.991          51.214          72.022          73.180          78.710          84.554          88.582          89.646          92.422          95.768          96.497         106.325         107.255         108.797         112.181         112.646         113.684         114.654         122.834         123.368         125.964         127.567
  381           7.339           8.711          11.071          51.059          72.015          73.178          78.751          84.572          88.573          89.788          92.358          95.767          96.449         106.382         107.240         108.797         112.220         112.655         113.708         114.665         122.875         123.475         125.919         127.550
  382           6.727           7.988          10.151          50.916          72.008          73.176          78.790          84.588          88.564          89.926          92.293          95.768          96.405         106.438         107.223         108.798         112.257         112.665         113.730         114.674         122.912         123.576         125.875         127.533
  383           6.116           7.263           9.230          50.785          72.003          73.174          78.825          84.603          88.557          90.060          92.225          95.768          96.363         106.492         107.206         108.798         112.290         112.673         113.749         114.682         122.946         123.672         125.832         127.518
  384           5.505           6.538           8.308          50.665          71.997          73.172          78.856          84.617          88.550          90.189          92.155          95.768          96.325         106.545         107.186         108.799         112.321         112.680         113.767         114.689         122.977         123.761         125.789         127.505
  385           4.893           5.813           7.386          50.558          71.993          73.170          78.884          84.630          88.543          90.314          92.084          95.769          96.290         106.595         107.166         108.799         112.349         112.687         113.782         114.696         123.005         123.844         125.749         127.493
  386           4.281           5.087           6.464          50.463          71.989          73.169          78.909          84.642          88.538          90.434          92.011          95.769          96.260         106.643         107.144         108.799         112.374         112.693         113.796         114.701         123.030         123.920         125.711         127.482
  387           3.670           4.361           5.541          50.380          71.985          73.168          78.930          84.652          88.533          90.548          91.938          95.770          96.233         106.689         107.120         108.800         112.395         112.698         113.808         114.705         123.052         123.989         125.675         127.473
  388           3.058           3.635           4.618          50.310          71.982          73.167          78.948          84.661          88.529          90.656          91.865          95.770          96.209         106.734         107.096         108.800         112.414         112.703         113.817         114.708         123.070         124.049         125.643         127.465
  389           2.447           2.908           3.695          50.253          71.979          73.166          78.962          84.669          88.525          90.755          91.794          95.771          96.190         106.775         107.070         108.800         112.429         112.706         113.825         114.711         123.085         124.100         125.614         127.458
  390           1.835           2.181           2.771          50.208          71.977          73.165          78.974          84.674          88.523          90.844          91.727          95.771          96.175         106.815         107.043         108.800         112.441         112.709         113.832         114.713         123.096         124.141         125.591         127.453
  391           1.223           1.454           1.848          50.176          71.976          73.165          78.982          84.679          88.521          90.916          91.670          95.771          96.165         106.850         107.016         108.800         112.450         112.711         113.836         114.714         123.105         124.171         125.574         127.449
  392           0.612           0.727           0.924          50.156          71.975          73.165          78.987          84.681          88.520          90.966          91.630          95.771          96.158         106.879         106.993         108.800         112.455         112.712         113.839         114.715         123.110         124.189         125.563         127.447
  393           0.000           0.000           0.000          50.150          71.975          73.164          78.988          84.682          88.519          90.984          91.616          95.771          96.156         106.892         106.981         108.800         112.456         112.713         113.839         114.715         123.111         124.195         125.560         127.447
  394           0.703           0.734           1.004          50.156          71.979          73.168          78.992          84.683          88.523          90.984          91.611          95.773          96.155         106.898         106.985         108.796         112.455         112.708         113.844         114.718         123.110         124.200         125.561         127.447
  395           1.407           1.468           2.007          50.175          71.990          73.177          79.002          84.688          88.532          90.983          91.596          95.779          96.153         106.914         106.995         108.783         112.453         112.693         113.856         114.727         123.108         124.215         125.563         127.449
  396           2.110           2.202           3.010          50.206          72.009          73.193          79.019          84.696          88.548          90.982          91.571          95.788          96.150         106.941         107.011         108.761         112.449         112.670         113.877         114.740         123.103         124.240         125.567         127.452
  397           2.813           2.936           4.013          50.249          72.035          73.215          79.043          84.707          88.571          90.980          91.537          95.800          96.145         106.978         107.034         108.732         112.442         112.637         113.907         114.758         123.097         124.275         125.572         127.457
  398           3.516           3.670           5.015          50.305          72.069          73.243          79.074          84.721          88.600          90.978          91.493          95.816          96.139         107.025         107.064         108.694         112.435         112.597         113.945         114.780         123.088         124.319         125.579         127.462
  399           4.219           4.404           6.017          50.373          72.110          73.278          79.111          84.738          88.635          90.976          91.441          95.836          96.132         107.081         107.098         108.651         112.425         112.548         113.991         114.806         123.078         124.373         125.587         127.469
  400           4.922           5.137           7.018          50.453          72.159          73.319          79.155          84.757          88.677          90.974          91.379          95.859          96.123         107.138         107.145         108.601         112.414         112.493         114.046         114.835         123.066         124.436         125.597         127.478
  401           5.624           5.870           8.019          50.545          72.215          73.365          79.206          84.780          88.725          90.973          91.309          95.885          96.112         107.183         107.215         108.549         112.402         112.431         114.111         114.865         123.052         124.507         125.609         127.487
  402           6.327           6.603           9.018          50.649          72.278          73.418          79.264          84.806          88.779          90.971          91.232          95.915          96.100         107.231         107.288         108.495         112.364         112.388         114.184         114.898         123.036         124.587         125.622         127.498
  403           7.028           7.336          10.017          50.765          72.348          73.477          79.328          84.834          88.839          90.970          91.146          95.948          96.087         107.283         107.359         108.446         112.292         112.372         114.266         114.930         123.019         124.676         125.637         127.511
  404           7.730           8.068          11.014          50.892          72.426          73.542          79.398          84.865          88.906          90.969          91.054          95.984          96.071         107.338         107.422         108.409         112.215         112.355         114.358         114.964         122.999         124.772         125.653         127.524
  405           8.431           8.799          12.010          51.031          72.510          73.613          79.475          84.898          88.979          90.955          90.970          96.023          96.054         107.396         107.467         108.393         112.134         112.337         114.459         114.996         122.977         124.876         125.671         127.539
  406           9.132           9.531          13.005          51.181          72.602          73.690          79.558          84.934          89.057          90.851          90.971          96.035          96.065         107.455         107.482         108.409         112.049         112.318         114.570         115.028         122.953         124.987         125.691         127.556
  407           9.832          10.261          13.998          51.343          72.700          73.772          79.648          84.972          89.142          90.740          90.974          96.014          96.110         107.461         107.515         108.465         111.961         112.297         114.690         115.059         122.928         125.105         125.712         127.574
  408          10.532          10.991          14.990          51.515          72.805          73.860          79.744          85.012          89.232          90.625          90.979          95.991          96.157         107.406         107.576         108.558         111.870         112.276         114.819         115.089         122.900         125.229         125.734         127.594
  409          11.231          11.721          15.979          51.697          72.917          73.953          79.846          85.054          89.328          90.505          90.985          95.966          96.208         107.324         107.637         108.682         111.776         112.254         114.959         115.116         122.870         125.359         125.759         127.615
  410          11.930          12.450          16.968          51.891          73.035          74.052          79.954          85.098          89.430          90.382          90.994          95.939          96.260         107.221         107.697         108.829         111.679         112.231         115.107         115.142         122.838         125.494         125.785         127.637
  411          12.628          13.178          17.954          52.094          73.160          74.156          80.068          85.144          89.537          90.254          91.004          95.910          96.315         107.104         107.757         108.995         111.581         112.208         115.164         115.265         122.804         125.635         125.813         127.661
  412          13.326          13.906          18.938          52.307          73.291          74.266          80.188          85.192          89.650          90.124          91.018          95.878          96.372         106.976         107.815         109.176         111.480         112.184         115.185         115.433         122.768         125.780         125.842         127.687
  413          14.023          14.632          19.920          52.530          73.428          74.380          80.314          85.241          89.768          89.991          91.033          95.844          96.431         106.839         107.872         109.369         111.377         112.160         115.202         115.609         122.729         125.873         125.930         127.714
  414          14.719          15.358          20.900          52.763          73.571          74.500          80.445          85.291          89.856          89.892          91.052          95.808          96.492         106.695         107.927         109.573         111.273         112.136         115.216         115.794         122.689         125.906         126.084         127.743
  415          15.415          16.084          21.878          53.004          73.720          74.624          80.582          85.342          89.719          90.020          91.074          95.768          96.554         106.546         107.980         109.786         111.166         112.112         115.227         115.988         122.646         125.940         126.242         127.774
  416          16.110          16.808          22.853          53.255          73.874          74.753          80.725          85.395          89.581          90.154          91.099          95.727          96.617         106.391         108.030         110.009         111.058         112.089         115.234         116.190         122.601         125.977         126.403         127.805
  417          16.804          17.531          23.825          53.514          74.034          74.886          80.873          85.448          89.442          90.292          91.127          95.682          96.681         106.233         108.079         110.239         110.949         112.066         115.237         116.400         122.554         126.015         126.567         127.839
  418          17.497          18.254          24.795          53.781          74.200          75.024          81.026          85.502          89.302          90.435          91.159          95.635          96.746         106.072         108.125         110.476         110.838         112.044         115.237         116.618         122.504         126.054         126.734         127.874
  419          18.189          18.975          25.762          54.056          74.370          75.165          81.184          85.557          89.162          90.582          91.195          95.584          96.812         105.907         108.169         110.720         110.726         112.023         115.233         116.843         122.452         126.096         126.904         127.910
  420          18.881          19.696          26.726          54.340          74.546          75.311          81.347          85.612          89.022          90.734          91.234          95.531          96.877         105.741         108.211         110.612         110.971         112.004         115.225         117.075         122.398         126.140         127.075         127.948
  421          19.571          20.415          27.688          54.630          74.726          75.461          81.515          85.667          88.882          90.891          91.277          95.474          96.943         105.573         108.250         110.497         111.228         111.986         115.213         117.313         122.341         126.185         127.249         127.987
  422          20.261          21.133          28.646          54.928          74.911          75.615          81.688          85.723          88.743          91.051          91.324          95.414          97.008         105.403         108.287         110.380         111.490         111.970         115.197         117.557         122.282         126.232         127.424         128.028
  423          20.950          21.850          29.601          55.233          75.101          75.772          81.865          85.778          88.605          91.215          91.374          95.351          97.072         105.233         108.322         110.263         111.757         111.956         115.176         117.807         122.221         126.281         127.600         128.070
  424          21.637          22.566          30.552          55.544          75.294          75.933          82.047          85.834          88.468          91.383          91.429          95.284          97.135         105.062         108.354         110.144         111.945         112.028         115.152         118.061         122.157         126.333         127.778         128.113
  425          22.324          23.280          31.500          55.861          75.492          76.096          82.233          85.889          88.332          91.486          91.555          95.214          97.196         104.891         108.385         110.024         111.937         112.305         115.122         118.321         122.091         126.386         127.957         128.157
  426          23.010          23.994          32.445          56.185          75.694          76.263          82.424          85.945          88.198          91.548          91.731          95.140          97.256         104.721         108.414         109.903         111.932         112.585         115.089         118.584         122.023         126.441         128.136         128.203
  427          23.694          24.705          33.386          56.514          75.900          76.433          82.618          86.000          88.065          91.613          91.909          95.063          97.313         104.551         108.442         109.780         111.930         112.869         115.051         118.851         121.952         126.498         128.249         128.317
  428          24.377          25.416          34.323          56.848          76.109          76.605          82.817          86.054          87.935          91.681          92.091          94.981          97.368         104.382         108.468         109.656         111.933         113.156         115.008         119.121         121.879         126.557         128.297         128.497
  429          25.059          26.125          35.257          57.187          76.321          76.780          83.020          86.109          87.806          91.752          92.276          94.896          97.419         104.214         108.492         109.531         111.939         113.447         114.961         119.394         121.803         126.619         128.345         128.677
  430          25.740          26.832          36.187          57.531          76.537          76.957          83.226          86.163          87.680          91.826          92.464          94.807          97.467         104.049         108.515         109.405         111.951         113.740         114.909         119.670         121.725         126.682         128.394         128.858
  431          26.420          27.539          37.112          57.880          76.756          77.137          83.436          86.216          87.556          91.903          92.654          94.713          97.511         103.885         108.537         109.277         111.967         114.036         114.853         119.947         121.644         126.748         128.444         129.038
  432          27.098          28.243          38.034          58.233          76.977          77.318          83.650          86.269          87.435          91.982          92.847          94.616          97.551         103.724         108.558         109.148         111.989         114.334         114.792         120.226         121.561         126.817         128.494         129.219
  433          27.775          28.946          38.951          58.589          77.201          77.501          83.867          86.322          87.317          92.063          93.042          94.514          97.586         103.565         108.578         109.018         112.016         114.635         114.727         120.506         121.476         126.887         128.545         129.398
  434          28.450          29.647          39.864          58.949          77.427          77.685          84.087          86.374          87.201          92.145          93.240          94.408          97.616         103.410         108.597         108.886         112.050         114.657         114.937         120.786         121.388         126.961         128.596         129.577
  435          29.125          30.346          40.773          59.312          77.655          77.871          84.311          86.425          87.088          92.229          93.440          94.298          97.640         103.259         108.615         108.753         112.090         114.583         115.240         121.066         121.297         127.037         128.648         129.756
  436          29.797          31.044          41.677          59.679          77.885          78.058          84.538          86.476          86.978          92.313          93.641          94.183          97.658         103.111         108.618         108.633         112.136         114.504         115.544         121.204         121.347         127.115         128.699         129.933
  437          30.469          31.740          42.576          60.048          78.117          78.246          84.767          86.527          86.872          92.398          93.844          94.064          97.670         102.968         108.482         108.650         112.190         114.421         115.850         121.109         121.626         127.196         128.750         130.109
  438          31.138          32.434          43.471          60.419          78.351          78.434          84.999          86.577          86.768          92.483          93.940          94.049          97.675         102.830         108.344         108.666         112.251         114.333         116.156         121.011         121.904         127.281         128.802         130.285
  439          31.807          33.126          44.361          60.792          78.585          78.623          85.235          86.626          86.668          92.566          93.812          94.255          97.674         102.698         108.204         108.682         112.319         114.241         116.463         120.911         122.181         127.368         128.853         130.459
  440          32.473          33.816          45.246          61.167          78.812          78.821          85.472          86.571          86.675          92.649          93.680          94.463          97.665         102.571         108.063         108.698         112.395         114.144         116.770         120.808         122.455         127.459         128.903         130.632
  441          33.138          34.504          46.126          61.544          79.001          79.058          85.712          86.477          86.724          92.730          93.543          94.671          97.649         102.451         107.920         108.713         112.479         114.043         117.077         120.703         122.727         127.553         128.954         130.803
  442          33.802          35.190          47.001          61.922          79.190          79.296          85.955          86.387          86.771          92.809          93.401          94.881          97.626         102.337         107.775         108.728         112.571         113.938         117.384         120.595         122.996         127.651         129.003         130.973
  443          34.464          35.874          47.871          62.301          79.379          79.534          86.199          86.300          86.819          92.885          93.255          95.091          97.595         102.231         107.628         108.743         112.671         113.829         117.690         120.485         123.262         127.752         129.052         131.141
  444          35.124          36.556          48.736          62.681          79.566          79.772          86.217          86.446          86.865          92.957          93.105          95.302          97.556         102.132         107.480         108.758         112.779         113.715         117.996         120.372         123.523         127.858         129.100         131.308
  445          35.782          37.235          49.595          63.061          79.753          80.011          86.137          86.695          86.911          92.950          93.026          95.514          97.509         102.042         107.329         108.773         112.895         113.598         118.300         120.257         123.780         127.968         129.147         131.473
  446          36.438          37.912          50.449          63.441          79.938          80.249          86.061          86.945          86.957          92.791          93.090          95.725          97.455         101.961         107.176         108.787         113.019         113.476         118.604         120.140         124.032         128.082         129.192         131.636
  447          37.093          38.587          51.297          63.821          80.122          80.487          85.988          87.002          87.198          92.628          93.148          95.935          97.394         101.888         107.021         108.801         113.152         113.350         118.906         120.020         124.278         128.201         129.237         131.797
  448          37.746          39.260          52.140          64.200          80.304          80.725          85.920          87.046          87.452          92.461          93.201          96.144          97.327         101.825         106.864         108.815         113.220         113.292         119.207         119.897         124.518         128.325         129.280         131.956
  449          38.397          39.930          52.976          64.579          80.483          80.962          85.854          87.090          87.708          92.289          93.249          96.350          97.255         101.772         106.705         108.829         113.087         113.440         119.506         119.772         124.752         128.454         129.321         132.113
  450          39.046          40.597          53.807          64.957          80.660          81.198          85.793          87.132          87.965          92.114          93.289          96.546          97.185         101.730         106.543         108.842         112.949         113.596         119.644         119.804         124.980         128.589         129.361         132.268
  451          39.693          41.262          54.632          65.334          80.835          81.434          85.735          87.174          88.223          91.936          93.323          96.712          97.137         101.697         106.378         108.856         112.808         113.760         119.514         120.099         125.200         128.729         129.399         132.421
  452          40.338          41.925          55.450          65.710          81.005          81.668          85.681          87.216          88.482          91.754          93.349          96.786          97.174         101.676         106.211         108.869         112.663         113.930         119.382         120.392         125.412         128.875         129.436         132.571
  453          40.981          42.584          56.263          66.083          81.172          81.900          85.631          87.256          88.743          91.569          93.369          96.743          97.321         101.665         106.041         108.882         112.515         114.108         119.246         120.682         125.617         129.026         129.470         132.720
  454          41.622          43.241          57.069          66.455          81.335          82.131          85.584          87.295          89.004          91.381          93.380          96.648          97.512         101.665         105.869         108.894         112.363         114.293         119.109         120.970         125.813         129.183         129.502         132.866
  455          42.261          43.895          57.868          66.825          81.493          82.361          85.541          87.334          89.266          91.191          93.384          96.533          97.716         101.676         105.693         108.907         112.207         114.484         118.969         121.255         126.002         129.345         129.532         133.009
  456          42.898          44.546          58.661          67.192          81.646          82.588          85.501          87.371          89.529          90.999          93.381          96.405          97.926         101.697         105.515         108.918         112.049         114.681         118.826         121.537         126.183         129.513         129.559         133.150
  457          43.532          45.195          59.447          67.557          81.793          82.813          85.466          87.407          89.792          90.805          93.370          96.268          98.137         101.729         105.333         108.930         111.887         114.885         118.681         121.816         126.356         129.584         129.685         133.289
  458          44.165          45.840          60.225          67.919          81.934          83.036          85.433          87.442          90.056          90.611          93.352          96.124          98.350         101.771         105.149         108.940         111.722         115.094         118.533         122.092         126.522         129.607         129.861         133.426
  459          44.795          46.482          60.997          68.278          82.067          83.257          85.405          87.475          90.320          90.416          93.328          95.973          98.564         101.823         104.961         108.951         111.554         115.308         118.383         122.364         126.680         129.627         130.042         133.559
  460          45.422          47.121          61.760          68.634          82.192          83.474          85.379          87.507          90.223          90.583          93.296          95.816          98.778         101.883         104.770         108.960         111.383         115.527         118.231         122.632         126.831         129.644         130.226         133.690
  461          46.048          47.757          62.516          68.987          82.309          83.690          85.356          87.538          90.031          90.847          93.259          95.654          98.993         101.953         104.575         108.969         111.209         115.751         118.076         122.897         126.976         129.658         130.413         133.819
  462          46.671          48.389          63.264          69.336          82.415          83.902          85.337          87.567          89.841          91.110          93.216          95.486          99.207         102.031         104.377         108.977         111.032         115.979         117.918         123.158         127.114         129.669         130.602         133.945
  463          47.292          49.018          64.002          69.683          82.511          84.111          85.320          87.594          89.656          91.372          93.167          95.315          99.422         102.117         104.175         108.985         110.853         116.211         117.758         123.414         127.246         129.678         130.793         134.068
  464          47.910          49.644          64.731          70.026          82.594          84.317          85.305          87.619          89.476          91.632          93.114          95.140          99.637         102.210         103.969         108.991         110.671         116.446         117.595         123.667         127.373         129.683         130.985         134.188
  465          48.526          50.266          65.450          70.367          82.664          84.519          85.291          87.643          89.304          91.891          93.057          94.963          99.851         102.310         103.759         108.996         110.487         116.685         117.430         123.915         127.495         129.684         131.178         134.306
  466          49.139          50.885          66.158          70.706          82.720          84.718          85.279          87.664          89.140          92.147          92.995          94.784         100.066         102.416         103.546         109.001         110.300         116.927         117.263         124.159         127.611         129.683         131.370         134.421
  467          49.750          51.500          66.853          71.043          82.759          84.913          85.268          87.683          88.986          92.397          92.930          94.607         100.280         102.528         103.328         109.004         110.111         117.093         117.172         124.398         127.723         129.678         131.563         134.533
  468          50.358          52.111          67.533          71.381          82.781          85.104          85.257          87.700          88.845          92.639          92.863          94.435         100.495         102.645         103.106         109.006         109.920         116.920         117.419         124.633         127.831         129.669         131.755         134.643
  469          50.963          52.718          68.197          71.721          82.783          85.246          85.292          87.715          88.719          92.793          92.865          94.276         100.709         102.766         102.879         109.006         109.727         116.746         117.668         124.862         127.935         129.657         131.945         134.749
  470          51.566          53.322          68.840          72.065          82.765          85.235          85.475          87.727          88.608          92.721          93.059          94.146         100.924         102.648         102.891         109.006         109.532         116.568         117.918         125.087         128.036         129.641         132.134         134.853
  471          52.166          53.921          69.459          72.419          82.724          85.224          85.654          87.737          88.514          92.647          93.185          94.081         101.138         102.413         103.020         109.003         109.335         116.389         118.171         125.307         128.132         129.622         132.321         134.953
  472          52.764          54.516          70.048          72.785          82.660          85.213          85.829          87.744          88.439          92.572          93.199          94.127         101.353         102.172         103.152         109.000         109.137         116.207         118.424         125.522         128.226         129.598         132.505         135.051
  473          53.358          55.107          70.599          73.172          82.571          85.204          85.999          87.749          88.381          92.496          93.110          94.274         101.568         101.927         103.286         108.936         108.994         116.023         118.678         125.731         128.316         129.571         132.687         135.146
  474          53.950          55.693          71.107          73.585          82.456          85.196          86.165          87.750          88.342          92.420          92.966          94.476         101.677         101.783         103.423         108.735         108.987         115.836         118.933         125.936         128.402         129.540         132.867         135.237
  475          54.539          56.275          71.565          74.028          82.317          85.191          86.326          87.749          88.320          92.343          92.796          94.702         101.422         101.998         103.562         108.532         108.979         115.647         119.189         126.134         128.486         129.505         133.043         135.326
  476          55.125          56.853          71.972          74.505          82.153          85.190          86.482          87.744          88.314          92.267          92.614          94.940         101.162         102.214         103.702         108.327         108.968         115.456         119.444         126.328         128.567         129.465         133.215         135.411
  477          55.708          57.425          72.328          75.012          81.965          85.191          86.634          87.737          88.322          92.191          92.427          95.183         100.897         102.430         103.843         108.122         108.955         115.263         119.699         126.516         128.645         129.422         133.384         135.494
  478          56.288          57.993          72.639          75.544          81.755          85.197          86.781          87.726          88.344          92.115          92.239          95.429         100.626         102.646         103.986         107.915         108.941         115.068         119.954         126.698         128.720         129.374         133.550         135.573
  479          56.865          58.556          72.909          76.096          81.524          85.207          86.922          87.713          88.377          92.040          92.050          95.676         100.350         102.863         104.129         107.707         108.924         114.870         120.209         126.875         128.792         129.322         133.711         135.649
  480          57.439          59.114          73.144          76.661          81.274          85.220          87.059          87.696          88.420          91.863          91.966          95.923         100.068         103.080         104.272         107.499         108.905         114.670         120.462         127.046         128.861         129.266         133.869         135.722
  481          58.009          59.667          73.347          77.235          81.006          85.238          87.190          87.676          88.470          91.679          91.893          96.170          99.781         103.297         104.415         107.290         108.884         114.469         120.715         127.212         128.928         129.206         134.022         135.791
  482          58.577          60.214          73.523          77.813          80.722          85.259          87.316          87.653          88.528          91.498          91.821          96.417          99.488         103.516         104.558         107.080         108.861         114.265         120.966         127.371         128.991         129.141         134.171         135.857
  483          59.141          60.755          73.672          78.394          80.423          85.284          87.438          87.627          88.592          91.322          91.750          96.662          99.189         103.734         104.700         106.869         108.835         114.059         121.216         127.526         129.052         129.072         134.316         135.920
  484          59.702          61.291          73.798          78.974          80.110          85.311          87.553          87.598          88.660          91.151          91.680          96.907          98.884         103.954         104.842         106.657         108.807         113.852         121.465         127.674         128.998         129.110         134.456         135.980
  485          60.260          61.821          73.899          79.553          79.786          85.342          87.566          87.664          88.731          90.986          91.612          97.150          98.574         104.174         104.983         106.446         108.777         113.642         121.711         127.816         128.920         129.165         134.592         136.036
  486          60.815          62.345          73.978          79.449          80.129          85.376          87.531          87.770          88.806          90.827          91.544          97.392          98.257         104.394         105.122         106.233         108.744         113.431         121.956         127.953         128.837         129.216         134.723         136.088
  487          61.366          62.862          74.034          79.102          80.701          85.412          87.493          87.870          88.882          90.675          91.478          97.632          97.934         104.616         105.261         106.021         108.708         113.218         122.199         128.084         128.750         129.265         134.849         136.137
  488          61.913          63.373          74.068          78.746          81.269          85.451          87.452          87.965          88.961          90.531          91.413          97.606          97.871         104.838         105.398         105.808         108.670         113.004         122.439         128.209         128.658         129.311         134.970         136.183
  489          62.457          63.877          74.080          78.380          81.831          85.492          87.409          88.055          89.040          90.394          91.349          97.271          98.108         105.061         105.534         105.595         108.629         112.787         122.676         128.328         128.561         129.353         135.087         136.224
  490          62.998          64.374          74.069          78.005          82.388          85.536          87.364          88.140          89.120          90.266          91.286          96.929          98.344         105.284         105.381         105.667         108.586         112.570         122.912         128.442         128.460         129.392         135.199         136.263
  491          63.535          64.864          74.036          77.623          82.939          85.581          87.316          88.220          89.200          90.145          91.224          96.582          98.578         105.168         105.509         105.799         108.539         112.350         123.144         128.355         128.550         129.428         135.306         136.297
  492          64.068          65.346          73.981          77.233          83.483          85.628          87.266          88.295          89.280          90.034          91.163          96.228          98.811         104.954         105.734         105.929         108.490         112.130         123.373         128.244         128.652         129.461         135.408         136.327
  493          64.598          65.820          73.905          76.835          84.021          85.677          87.214          88.366          89.359          89.930          91.102          95.868          99.043         104.740         105.960         106.057         108.438         111.908         123.600         128.129         128.749         129.490         135.505         136.354
  494          65.124          66.287          73.806          76.431          84.552          85.728          87.160          88.432          89.438          89.836          91.041          95.501          99.273         104.526         106.183         106.186         108.383         111.685         123.823         128.010         128.840         129.516         135.597         136.377
  495          65.646          66.744          73.686          76.020          85.075          85.781          87.104          88.493          89.517          89.750          90.981          95.129          99.501         104.312         106.307         106.413         108.325         111.461         124.043         127.886         128.925         129.537         135.684         136.395
  496          66.164          67.193          73.546          75.602          85.590          85.835          87.047          88.550          89.594          89.674          90.922          94.750          99.728         104.097         106.428         106.641         108.265         111.235         124.260         127.757         129.005         129.556         135.767         136.410
  497          66.679          67.633          73.384          75.179          85.890          86.097          86.989          88.604          89.606          89.671          90.862          94.364          99.954         103.883         106.546         106.870         108.201         111.009         124.473         127.624         129.079         129.570         135.844         136.420
  498          67.189          68.063          73.203          74.749          85.946          86.592          86.929          88.653          89.549          89.746          90.802          93.973         100.179         103.668         106.662         107.099         108.134         110.782         124.683         127.486         129.148         129.581         135.916         136.427
  499          67.695          68.482          73.002          74.314          86.004          86.869          87.075          88.698          89.504          89.821          90.742          93.575         100.403         103.453         106.776         107.328         108.064         110.554         124.889         127.343         129.212         129.587         135.984         136.429
  500          68.197          68.892          72.782          73.873          86.063          86.807          87.541          88.740          89.476          89.894          90.682          93.172         100.625         103.238         106.887         107.558         107.992         110.325         125.091         127.196         129.270         129.590         136.046         136.427
  501          68.695          69.290          72.543          73.427          86.122          86.745          87.978          88.779          89.473          89.965          90.621          92.763         100.847         103.023         106.995         107.789         107.916         110.096         125.289         127.045         129.323         129.588         136.104         136.420
  502          69.189          69.677          72.287          72.975          86.183          86.683          88.364          88.813          89.519          90.036          90.560          92.350         101.067         102.808         107.100         107.837         108.019         109.866         125.484         126.889         129.372         129.582         136.157         136.409
  503          69.678          70.052          72.014          72.519          86.244          86.620          88.654          88.844          89.658          90.105          90.498          91.932         101.287         102.592         107.202         107.756         108.250         109.636         125.674         126.728         129.415         129.572         136.205         136.394
  504          70.163          70.414          71.724          72.057          86.306          86.557          88.815          88.870          89.921          90.174          90.435          91.511         101.506         102.376         107.302         107.671         108.481         109.405         125.860         126.563         129.453         129.557         136.248         136.374
  505          70.644          70.763          71.418          71.591          86.368          86.494          88.880          88.888          90.241          90.276          90.371          91.090         101.724         102.159         107.399         107.583         108.712         109.174         126.042         126.394         129.486         129.538         136.286         136.349
  506          71.098          71.098          71.120          71.120          86.431          86.431          88.895          88.895          90.306          90.306          90.675          90.675         101.942         101.942         107.492         107.492         108.943         108.943         126.220         126.220         129.514         129.514         136.320         136.320
