# Phonon frequencies in cm-1
    1         475.458         475.458         550.294         550.294         904.938        1116.870
    2         475.013         475.013         550.695         550.695         904.813        1116.865
    3         473.706         473.706         551.871         551.871         904.440        1116.851
    4         471.613         471.613         553.747         553.747         903.819        1116.827
    5         468.836         468.836         556.219         556.219         902.950        1116.794
    6         465.485         465.485         559.178         559.178         901.835        1116.749
    7         461.664         461.664         562.521         562.521         900.473        1116.694
    8         457.460         457.460         566.162         566.162         898.868        1116.626
    9         452.946         452.946         570.027         570.027         897.020        1116.545
   10         448.178         448.178         574.061         574.061         894.930        1116.450
   11         443.203         443.203         578.217         578.217         892.602        1116.340
   12         438.056         438.056         582.462         582.462         890.037        1116.213
   13         432.767         432.767         586.766         586.766         887.236        1116.069
   14         427.358         427.358         591.108         591.108         884.203        1115.906
   15         421.846         421.846         595.471         595.471         880.940        1115.722
   16         416.248         416.248         599.840         599.840         877.449        1115.518
   17         410.576         410.576         604.205         604.205         873.732        1115.290
   18         404.840         404.840         608.555         608.555         869.793        1115.040
   19         399.049         399.049         612.883         612.883         865.632        1114.764
   20         393.211         393.211         617.182         617.182         861.255        1114.463
   21         387.332         387.332         621.447         621.447         856.661        1114.136
   22         381.418         381.418         625.674         625.674         851.855        1113.781
   23         375.474         375.474         629.858         629.858         846.838        1113.398
   24         369.506         369.506         633.996         633.996         841.614        1112.987
   25         363.518         363.518         638.086         638.086         836.184        1112.546
   26         357.513         357.513         642.124         642.124         830.551        1112.076
   27         351.496         351.496         646.109         646.109         824.718        1111.577
   28         345.470         345.470         650.039         650.039         818.686        1111.047
   29         339.437         339.437         653.912         653.912         812.459        1110.487
   30         333.403         333.403         657.726         657.726         806.038        1109.898
   31         327.368         327.368         661.481         661.481         799.425        1109.279
   32         321.337         321.337         665.175         665.175         792.624        1108.630
   33         315.311         315.311         668.808         668.808         785.635        1107.952
   34         309.295         309.295         672.378         672.378         778.462        1107.245
   35         303.289         303.289         675.885         675.885         771.107        1106.511
   36         297.297         297.297         679.329         679.329         763.571        1105.748
   37         291.321         291.321         682.708         682.708         755.857        1104.959
   38         285.364         285.364         686.023         686.023         747.967        1104.144
   39         279.427         279.427         689.272         689.272         739.903        1103.303
   40         273.514         273.514         692.457         692.457         731.668        1102.438
   41         267.625         267.625         695.577         695.577         723.263        1101.550
   42         261.764         261.764         698.631         698.631         714.690        1100.639
   43         255.932         255.932         701.620         701.620         705.952        1099.707
   44         250.131         250.131         697.050         704.544         704.544        1098.755
   45         244.363         244.363         687.988         707.402         707.402        1097.784
   46         238.630         238.630         678.767         710.196         710.196        1096.796
   47         232.935         232.935         669.388         712.924         712.924        1095.791
   48         227.278         227.278         659.856         715.588         715.588        1094.771
   49         221.662         221.662         650.171         718.188         718.188        1093.737
   50         216.087         216.087         640.335         720.723         720.723        1092.690
   51         210.556         210.556         630.352         723.195         723.195        1091.633
   52         205.071         205.071         620.223         725.604         725.604        1090.566
   53         199.632         199.632         609.951         727.949         727.949        1089.491
   54         194.242         194.242         599.538         730.232         730.232        1088.409
   55         188.900         188.900         588.986         732.454         732.454        1087.321
   56         183.610         183.610         578.297         734.614         734.614        1086.230
   57         178.371         178.371         567.475         736.713         736.713        1085.136
   58         173.185         173.185         556.521         738.752         738.752        1084.042
   59         168.054         168.054         545.438         740.731         740.731        1082.948
   60         162.977         162.977         534.228         742.651         742.651        1081.856
   61         157.956         157.956         522.894         744.512         744.512        1080.767
   62         152.992         152.992         511.439         746.316         746.316        1079.683
   63         148.085         148.085         499.864         748.062         748.062        1078.606
   64         143.236         143.236         488.173         749.752         749.752        1077.536
   65         138.445         138.445         476.369         751.386         751.386        1076.475
   66         133.714         133.714         464.453         752.965         752.965        1075.425
   67         129.041         129.041         452.429         754.489         754.489        1074.387
   68         124.428         124.428         440.298         755.960         755.960        1073.363
   69         119.874         119.874         428.065         757.378         757.378        1072.353
   70         115.380         115.380         415.732         758.743         758.743        1071.359
   71         110.945         110.945         403.301         760.056         760.056        1070.383
   72         106.569         106.569         390.776         761.318         761.318        1069.425
   73         102.251         102.251         378.159         762.530         762.530        1068.487
   74          97.992          97.992         365.453         763.693         763.693        1067.570
   75          93.791          93.791         352.661         764.806         764.806        1066.675
   76          89.647          89.647         339.787         765.871         765.871        1065.804
   77          85.558          85.558         326.832         766.889         766.889        1064.958
   78          81.525          81.525         313.800         767.859         767.859        1064.137
   79          77.546          77.546         300.694         768.783         768.783        1063.343
   80          73.620          73.620         287.517         769.662         769.662        1062.577
   81          69.745          69.745         274.273         770.495         770.495        1061.840
   82          65.921          65.921         260.963         771.283         771.283        1061.132
   83          62.145          62.145         247.592         772.028         772.028        1060.455
   84          58.415          58.415         234.162         772.729         772.729        1059.809
   85          54.731          54.731         220.677         773.387         773.387        1059.196
   86          51.090          51.090         207.140         774.002         774.002        1058.616
   87          47.489          47.489         193.553         774.576         774.576        1058.070
   88          43.928          43.928         179.920         775.108         775.108        1057.558
   89          40.402          40.402         166.245         775.599         775.599        1057.082
   90          36.911          36.911         152.531         776.049         776.049        1056.642
   91          33.452          33.452         138.780         776.459         776.459        1056.238
   92          30.022          30.022         124.996         776.828         776.828        1055.870
   93          26.618          26.618         111.183         777.158         777.158        1055.541
   94          23.238          23.238          97.343         777.449         777.449        1055.249
   95          19.879          19.879          83.480         777.700         777.700        1054.995
   96          16.538          16.538          69.597         777.912         777.912        1054.780
   97          13.212          13.212          55.697         778.086         778.086        1054.603
   98           9.899           9.899          41.784         778.220         778.220        1054.465
   99           6.594           6.594          27.862         778.316         778.316        1054.367
  100           3.295           3.295          13.933         778.374         778.374        1054.308
  101           0.000           0.000           0.000         778.393         778.393         778.393
  102           3.282           8.460          11.478         778.374         778.440        1054.259
  103           6.564          16.917          22.955         778.317         778.581        1054.171
  104           9.848          25.371          34.429         778.222         778.816        1054.025
  105          13.135          33.820          45.900         778.088         779.145        1053.821
  106          16.426          42.262          57.366         777.916         779.567        1053.558
  107          19.721          50.694          68.825         777.706         780.083        1053.237
  108          23.021          59.115          80.277         777.457         780.691        1052.858
  109          26.327          67.524          91.721         777.169         781.392        1052.421
  110          29.640          75.918         103.154         776.842         782.185        1051.926
  111          32.961          84.296         114.577         776.476         783.070        1051.373
  112          36.291          92.656         125.986         776.070         784.046        1050.764
  113          39.629         100.996         137.382         775.625         785.112        1050.096
  114          42.978         109.314         148.763         775.139         786.268        1049.373
  115          46.337         117.609         160.127         774.613         787.513        1048.592
  116          49.708         125.879         171.474         774.046         788.846        1047.755
  117          53.091         134.122         182.801         773.438         790.267        1046.862
  118          56.486         142.337         194.108         772.788         791.774        1045.914
  119          59.895         150.521         205.394         772.096         793.367        1044.910
  120          63.318         158.673         216.656         771.362         795.045        1043.852
  121          66.755         166.791         227.893         770.585         796.806        1042.739
  122          70.206         174.874         239.104         769.764         798.650        1041.572
  123          73.673         182.920         250.288         768.899         800.575        1040.352
  124          77.156         190.927         261.443         767.990         802.581        1039.079
  125          80.655         198.893         272.567         767.036         804.666        1037.754
  126          84.170         206.818         283.659         766.036         806.829        1036.377
  127          87.701         214.699         294.718         764.990         809.068        1034.950
  128          91.250         222.536         305.741         763.898         811.383        1033.472
  129          94.815         230.325         316.727         762.758         813.772        1031.945
  130          98.398         238.066         327.674         761.571         816.234        1030.370
  131         101.998         245.758         338.582         760.335         818.766        1028.747
  132         105.615         253.399         349.447         759.050         821.369        1027.077
  133         109.250         260.986         360.267         757.716         824.040        1025.361
  134         112.902         268.520         371.042         756.332         826.778        1023.601
  135         116.571         275.999         381.769         754.897         829.582        1021.797
  136         120.258         283.420         392.447         753.411         832.449        1019.951
  137         123.961         290.783         403.072         751.874         835.378        1018.063
  138         127.681         298.087         413.643         750.284         838.369        1016.137
  139         131.418         305.330         424.157         748.641         841.418        1014.172
  140         135.171         312.511         434.613         746.945         844.525        1012.170
  141         138.940         319.629         445.007         745.195         847.687        1010.134
  142         142.724         326.682         455.337         743.390         850.904        1008.064
  143         146.523         333.670         465.601         741.531         854.173        1005.964
  144         150.337         340.591         475.795         739.616         857.492        1003.835
  145         154.165         347.444         485.917         737.646         860.861        1001.678
  146         158.006         354.228         495.964         735.619         864.277         999.498
  147         161.860         360.942         505.931         733.536         867.739         997.296
  148         165.727         367.585         515.817         731.396         871.244         995.075
  149         169.605         374.157         525.616         729.198         874.791         992.839
  150         173.494         380.656         535.325         726.942         878.378         990.590
  151         177.393         387.081         544.940         724.629         882.004         988.333
  152         181.302         393.432         554.456         722.258         885.666         986.070
  153         185.219         399.708         563.868         719.828         889.363         983.807
  154         189.143         405.908         573.172         717.339         893.093         981.548
  155         193.075         412.031         582.362         714.792         896.853         979.299
  156         197.012         418.077         591.431         712.185         900.643         977.063
  157         200.954         424.045         600.373         709.520         904.460         974.849
  158         204.901         429.935         609.181         706.796         908.302         972.661
  159         208.850         435.746         617.848         704.013         912.168         970.508
  160         212.801         441.477         626.365         701.171         916.055         968.396
  161         216.753         447.128         634.724         698.270         919.962         966.336
  162         220.705         452.700         642.914         695.311         923.887         964.335
  163         224.655         458.190         650.926         692.293         927.828         962.404
  164         228.603         463.600         658.748         689.217         931.782         960.554
  165         232.547         468.928         666.368         686.084         935.749         958.797
  166         236.486         474.175         673.773         682.893         939.726         957.145
  167         240.420         479.341         679.645         680.948         943.710         955.614
  168         244.346         484.425         676.341         687.879         947.701         954.217
  169         248.264         489.426         672.982         694.550         951.697         952.970
  170         252.172         494.346         669.567         700.944         951.890         955.695
  171         256.068         499.184         666.097         707.044         950.994         959.693
  172         259.953         503.940         662.574         712.832         950.299         963.690
  173         263.824         508.614         658.999         718.291         949.824         967.683
  174         267.681         513.206         655.371         723.403         949.586         971.671
  175         271.521         517.716         651.693         728.152         949.600         975.652
  176         275.343         522.145         647.965         732.523         949.883         979.624
  177         279.147         526.492         644.188         736.503         950.447         983.585
  178         282.930         530.758         640.364         740.082         951.304         987.533
  179         286.692         534.943         636.493         743.253         952.460         991.466
  180         290.432         539.048         632.579         746.012         953.919         995.383
  181         294.147         543.072         628.621         748.359         955.682         999.281
  182         297.836         547.016         624.621         750.299         957.744        1003.159
  183         301.498         550.880         620.581         751.840         960.097        1007.015
  184         305.132         554.665         616.504         752.996         962.730        1010.846
  185         308.737         558.372         612.390         753.780         965.629        1014.652
  186         312.310         561.999         608.241         754.211         968.775        1018.430
  187         315.851         565.549         604.061         754.309         972.149        1022.179
  188         319.358         569.021         599.850         754.096         975.731        1025.897
  189         322.830         572.416         595.611         753.593         979.500        1029.581
  190         326.265         575.735         591.347         752.824         983.433        1033.231
  191         329.663         578.977         587.059         751.810         987.509        1036.845
  192         333.021         582.144         582.751         750.574         991.708        1040.421
  193         336.339         578.425         585.236         749.137         996.010        1043.957
  194         339.615         574.084         588.254         747.517        1000.395        1047.452
  195         342.848         569.730         591.198         745.736        1004.847        1050.903
  196         346.037         565.368         594.069         743.809        1009.348        1054.311
  197         349.180         560.999         596.867         741.754        1013.883        1057.672
  198         352.275         556.627         599.593         739.586        1018.439        1060.985
  199         355.323         552.255         602.247         737.319        1023.002        1064.249
  200         358.320         547.887         604.831         734.968        1027.560        1067.462
  201         361.267         543.527         607.344         732.543        1032.103        1070.623
  202         364.162         539.178         609.788         730.058        1036.620        1073.731
  203         367.004         534.843         612.163         727.522        1041.102        1076.783
  204         369.791         530.528         614.470         724.946        1045.542        1079.779
  205         372.522         526.235         616.709         722.340        1049.931        1082.716
  206         375.196         521.969         618.880         719.710        1054.262        1085.595
  207         377.812         517.735         620.985         717.067        1058.529        1088.413
  208         380.369         513.536         623.025         714.418        1062.726        1091.170
  209         382.865         509.378         624.999         711.770        1066.848        1093.863
  210         385.300         505.264         626.908         709.130        1070.889        1096.492
  211         387.672         501.200         628.753         706.504        1074.846        1099.055
  212         389.980         497.191         630.535         703.898        1078.713        1101.552
  213         392.222         493.241         632.254         701.320        1082.488        1103.981
  214         394.398         489.355         633.910         698.773        1086.165        1106.342
  215         396.507         485.539         635.505         696.264        1089.743        1108.632
  216         398.547         481.798         637.038         693.798        1093.218        1110.852
  217         400.517         478.138         638.511         691.379        1096.587        1112.999
  218         402.416         474.563         639.923         689.012        1099.847        1115.074
  219         404.242         471.080         641.276         686.702        1102.996        1117.074
  220         405.993         467.695         642.569         684.452        1106.032        1119.000
  221         407.669         464.413         643.804         682.268        1108.952        1120.851
  222         409.267         461.241         644.980         680.153        1111.754        1122.625
  223         410.786         458.185         646.099         678.110        1114.438        1124.322
  224         412.223         455.251         647.160         676.144        1117.000        1125.941
  225         413.575         452.447         648.164         674.258        1119.440        1127.481
  226         414.839         449.781         649.112         672.454        1121.755        1128.942
  227         416.012         447.260         650.003         670.737        1123.945        1130.323
  228         417.087         444.895         650.838         669.108        1126.008        1131.623
  229         418.060         442.693         651.618         667.572        1127.943        1132.842
  230         418.922         440.669         652.343         666.130        1129.750        1133.980
  231         419.664         438.833         653.013         664.785        1131.426        1135.035
  232         420.276         437.200         653.628         663.539        1132.971        1136.007
  233         420.749         435.784         654.189         662.394        1134.385        1136.897
  234         421.073         434.596         654.696         661.352        1135.666        1137.702
  235         421.248         433.640         655.149         660.415        1136.814        1138.424
  236         421.284         432.907         655.548         659.585        1137.828        1139.062
  237         421.206         432.377         655.893         658.863        1138.708        1139.615
  238         421.050         432.015         656.185         658.249        1139.454        1140.084
  239         420.856         431.782         656.424         657.746        1140.064        1140.468
  240         420.664         431.641         656.610         657.354        1140.539        1140.766
  241         420.504         431.562         656.742         657.073        1140.879        1140.980
  242         420.399         431.523         656.822         656.905        1141.082        1141.108
  243         420.363         431.512         656.848         656.848        1141.150        1141.150
  244         420.606         431.612         656.856         656.856        1141.123        1141.123
  245         421.334         431.912         656.880         656.880        1141.043        1141.043
  246         422.545         432.411         656.919         656.919        1140.908        1140.908
  247         424.232         433.108         656.974         656.974        1140.720        1140.720
  248         426.389         434.001         657.045         657.045        1140.479        1140.479
  249         429.005         435.089         657.132         657.132        1140.184        1140.184
  250         432.071         436.368         657.235         657.235        1139.835        1139.835
  251         435.574         437.836         657.354         657.354        1139.434        1139.434
  252         439.489         439.499         657.490         657.490        1138.979        1138.979
  253         441.324         443.831         657.642         657.642        1138.472        1138.472
  254         443.336         448.556         657.811         657.811        1137.912        1137.912
  255         445.521         453.654         657.998         657.998        1137.300        1137.300
  256         447.875         459.110         658.201         658.201        1136.636        1136.636
  257         450.391         464.905         658.422         658.422        1135.920        1135.920
  258         453.066         471.020         658.661         658.661        1135.153        1135.153
  259         455.892         477.438         658.919         658.919        1134.335        1134.335
  260         458.866         484.140         659.194         659.194        1133.467        1133.467
  261         461.981         491.108         659.489         659.489        1132.549        1132.549
  262         465.230         498.323         659.803         659.803        1131.581        1131.581
  263         468.609         505.769         660.136         660.136        1130.563        1130.563
  264         472.110         513.428         660.489         660.489        1129.498        1129.498
  265         475.728         521.282         660.863         660.863        1128.384        1128.384
  266         479.456         529.316         661.256         661.256        1127.222        1127.222
  267         483.288         537.513         661.671         661.671        1126.014        1126.014
  268         487.218         545.859         662.107         662.107        1124.759        1124.759
  269         491.239         554.338         662.565         662.565        1123.459        1123.459
  270         495.346         562.935         663.045         663.045        1122.114        1122.114
  271         499.531         571.638         663.547         663.547        1120.724        1120.724
  272         503.789         580.433         664.072         664.072        1119.291        1119.291
  273         508.114         589.307         664.620         664.620        1117.815        1117.815
  274         512.500         598.248         665.191         665.191        1116.297        1116.297
  275         516.941         607.244         665.785         665.785        1114.738        1114.738
  276         521.430         616.285         666.404         666.404        1113.139        1113.139
  277         525.964         625.358         667.046         667.046        1111.500        1111.500
  278         530.534         634.455         667.713         667.713        1109.823        1109.823
  279         535.137         643.565         668.404         668.404        1108.109        1108.109
  280         539.767         652.679         669.120         669.120        1106.358        1106.358
  281         544.419         661.787         669.861         669.861        1104.571        1104.571
  282         549.087         670.627         670.627         670.882        1102.751        1102.751
  283         553.767         671.418         671.418         679.954        1100.897        1100.897
  284         558.453         672.233         672.233         688.996        1099.011        1099.011
  285         563.141         673.074         673.074         698.000        1097.094        1097.094
  286         567.826         673.940         673.940         706.959        1095.148        1095.148
  287         572.504         674.830         674.830         715.866        1093.173        1093.173
  288         577.170         675.745         675.745         724.714        1091.171        1091.171
  289         581.820         676.685         676.685         733.497        1089.143        1089.143
  290         586.450         677.649         677.649         742.208        1087.091        1087.091
  291         591.055         678.636         678.636         750.842        1085.016        1085.016
  292         595.632         679.647         679.647         759.392        1082.920        1082.920
  293         600.177         680.681         680.681         767.853        1080.804        1080.804
  294         604.687         681.738         681.738         776.220        1078.670        1078.670
  295         609.156         682.817         682.817         784.488        1076.519        1076.519
  296         613.584         683.916         683.916         792.652        1074.353        1074.353
  297         617.964         685.037         685.037         800.707        1072.175        1072.175
  298         622.296         686.177         686.177         808.649        1069.984        1069.984
  299         626.574         687.336         687.336         816.472        1067.785        1067.785
  300         630.797         688.513         688.513         824.174        1065.577        1065.577
  301         634.961         689.707         689.707         831.749        1063.364        1063.364
  302         639.063         690.917         690.917         839.195        1061.148        1061.148
  303         643.101         692.141         692.141         846.506        1058.930        1058.930
  304         647.072         693.379         693.379         853.681        1056.712        1056.712
  305         650.973         694.628         694.628         860.714        1054.498        1054.498
  306         654.802         695.888         695.888         867.603        1052.289        1052.289
  307         658.556         697.157         697.157         874.344        1050.087        1050.087
  308         662.233         698.434         698.434         880.935        1047.895        1047.895
  309         665.830         699.715         699.715         887.372        1045.716        1045.716
  310         669.346         701.001         701.001         893.652        1043.552        1043.552
  311         672.779         702.288         702.288         899.773        1041.405        1041.405
  312         676.125         703.574         703.574         905.731        1039.279        1039.279
  313         679.385         704.859         704.859         911.525        1037.176        1037.176
  314         682.554         706.139         706.139         917.152        1035.098        1035.098
  315         685.633         707.412         707.412         922.610        1033.050        1033.050
  316         688.618         708.675         708.675         927.895        1031.033        1031.033
  317         691.509         709.927         709.927         933.007        1029.051        1029.051
  318         694.303         711.165         711.165         937.942        1027.107        1027.107
  319         697.000         712.385         712.385         942.700        1025.203        1025.203
  320         699.597         713.587         713.587         947.278        1023.344        1023.344
  321         702.094         714.765         714.765         951.673        1021.532        1021.532
  322         704.489         715.919         715.919         955.886        1019.770        1019.770
  323         706.781         717.045         717.045         959.913        1018.062        1018.062
  324         708.968         718.140         718.140         963.753        1016.411        1016.411
  325         711.050         719.201         719.201         967.405        1014.820        1014.820
  326         713.025         720.226         720.226         970.868        1013.292        1013.292
  327         714.893         721.212         721.212         974.139        1011.831        1011.831
  328         716.652         722.155         722.155         977.219        1010.440        1010.440
  329         718.302         723.053         723.053         980.105        1009.121        1009.121
  330         719.841         723.903         723.903         982.797        1007.879        1007.879
  331         721.269         724.702         724.702         985.293        1006.715        1006.715
  332         722.586         725.448         725.448         987.593        1005.632        1005.632
  333         723.791         726.139         726.139         989.696        1004.634        1004.634
  334         724.882         726.771         726.771         991.601        1003.723        1003.723
  335         725.860         727.344         727.344         993.307        1002.901        1002.901
  336         726.724         727.854         727.854         994.814        1002.170        1002.170
  337         727.474         728.300         728.300         996.121        1001.533        1001.533
  338         728.109         728.680         728.680         997.228        1000.990        1000.990
  339         728.629         728.993         728.993         998.134        1000.544        1000.544
  340         729.033         729.238         729.238         998.840        1000.196        1000.196
  341         729.323         729.413         729.413         999.343         999.947         999.947
  342         729.496         729.519         729.519         999.646         999.797         999.797
  343         729.554         729.554         729.554         999.747         999.747         999.747
  344         729.489         729.522         729.522         999.732         999.732         999.775
  345         729.293         729.427         729.427         999.688         999.688         999.859
  346         728.969         729.269         729.269         999.616         999.616         999.999
  347         728.516         729.048         729.048         999.514         999.514        1000.193
  348         727.939         728.763         728.763         999.384         999.384        1000.440
  349         727.239         728.415         728.415         999.224         999.224        1000.736
  350         726.421         728.005         728.005         999.035         999.035        1001.079
  351         725.488         727.532         727.532         998.818         998.818        1001.465
  352         724.446         726.996         726.996         998.571         998.571        1001.892
  353         723.298         726.399         726.399         998.295         998.295        1002.354
  354         722.052         725.739         725.739         997.991         997.991        1002.848
  355         720.711         725.017         725.017         997.657         997.657        1003.368
  356         719.284         724.235         724.235         997.295         997.295        1003.911
  357         717.776         723.391         723.391         996.904         996.904        1004.471
  358         716.194         722.486         722.486         996.484         996.484        1005.043
  359         714.545         721.522         721.522         996.035         996.035        1005.621
  360         712.836         720.497         720.497         995.558         995.558        1006.201
  361         711.075         719.413         719.413         995.052         995.052        1006.777
  362         709.267         718.270         718.270         994.517         994.517        1007.344
  363         707.422         717.068         717.068         993.953         993.953        1007.896
  364         705.545         715.808         715.808         993.362         993.362        1008.428
  365         703.645         714.490         714.490         992.741         992.741        1008.936
  366         701.729         713.115         713.115         992.093         992.093        1009.414
  367         699.803         711.683         711.683         991.416         991.416        1009.858
  368         697.876         710.195         710.195         990.711         990.711        1010.262
  369         695.953         708.651         708.651         989.978         989.978        1010.622
  370         694.041         707.052         707.052         989.217         989.217        1010.933
  371         692.148         705.398         705.398         988.428         988.428        1011.192
  372         690.281         703.690         703.690         987.611         987.611        1011.394
  373         688.444         701.929         701.929         986.767         986.767        1011.535
  374         686.645         700.114         700.114         985.896         985.896        1011.611
  375         684.890         698.247         698.247         984.997         984.997        1011.619
  376         683.184         696.328         696.328         984.071         984.071        1011.556
  377         681.533         694.357         694.357         983.118         983.118        1011.417
  378         679.943         692.335         692.335         982.139         982.139        1011.201
  379         678.418         690.262         690.262         981.133         981.133        1010.903
  380         676.964         688.140         688.140         980.100         980.100        1010.522
  381         675.585         685.968         685.968         979.042         979.042        1010.055
  382         674.285         683.747         683.747         977.957         977.957        1009.500
  383         673.070         681.477         681.477         976.847         976.847        1008.853
  384         671.942         679.159         679.159         975.712         975.712        1008.114
  385         670.906         676.794         676.794         974.551         974.551        1007.280
  386         669.965         674.381         674.381         973.365         973.365        1006.350
  387         669.121         671.922         671.922         972.155         972.155        1005.322
  388         668.379         669.416         669.416         970.920         970.920        1004.195
  389         666.864         666.864         667.739         969.662         969.662        1002.968
  390         664.267         664.267         667.204         968.379         968.379        1001.639
  391         661.624         661.624         666.776         967.073         967.073        1000.208
  392         658.937         658.937         666.457         965.744         965.744         998.675
  393         656.205         656.205         666.248         964.392         964.392         997.038
  394         653.428         653.428         666.149         963.017         963.017         995.298
  395         650.608         650.608         666.160         961.621         961.621         993.454
  396         647.743         647.743         666.283         960.202         960.202         991.507
  397         644.836         644.836         666.517         958.762         958.762         989.457
  398         641.885         641.885         666.861         957.301         957.301         987.304
  399         638.890         638.890         667.315         955.819         955.819         985.049
  400         635.853         635.853         667.876         954.317         954.317         982.693
  401         632.773         632.773         668.543         952.795         952.795         980.238
  402         629.651         629.651         669.314         951.253         951.253         977.684
  403         626.486         626.486         670.186         949.692         949.692         975.034
  404         623.279         623.279         671.157         948.112         948.112         972.289
  405         620.029         620.029         672.222         946.514         946.514         969.452
  406         616.737         616.737         673.378         944.898         944.898         966.525
  407         613.403         613.403         674.621         943.264         943.264         963.512
  408         610.027         610.027         675.945         941.613         941.613         960.416
  409         606.609         606.609         677.344         939.945         939.945         957.241
  410         603.148         603.148         678.813         938.261         938.261         953.991
  411         599.645         599.645         680.345         936.561         936.561         950.672
  412         596.100         596.100         681.932         934.845         934.845         947.288
  413         592.513         592.513         683.566         933.115         933.115         943.845
  414         588.883         588.883         685.238         931.369         931.369         940.352
  415         585.211         585.211         686.938         929.610         929.610         936.815
  416         581.496         581.496         688.656         927.836         927.836         933.242
  417         577.739         577.739         690.379         926.050         926.050         929.645
  418         573.939         573.939         692.095         924.250         924.250         926.032
  419         570.095         570.095         693.789         922.416         922.438         922.438
  420         566.209         566.209         695.446         918.811         920.613         920.613
  421         562.280         562.280         697.048         915.230         918.777         918.777
  422         558.307         558.307         698.578         911.690         916.930         916.930
  423         554.291         554.291         700.014         908.208         915.072         915.072
  424         550.231         550.231         701.336         904.803         913.204         913.204
  425         546.127         546.127         702.521         901.497         911.326         911.326
  426         541.979         541.979         703.542         898.312         909.439         909.439
  427         537.787         537.787         704.374         895.271         907.543         907.543
  428         533.550         533.550         704.991         892.399         905.638         905.638
  429         529.269         529.269         705.364         889.722         903.725         903.725
  430         524.944         524.944         705.465         887.264         901.804         901.804
  431         520.573         520.573         705.267         885.051         899.876         899.876
  432         516.157         516.157         704.745         883.107         897.942         897.942
  433         511.697         511.697         703.876         881.451         896.001         896.001
  434         507.190         507.190         702.639         880.101         894.055         894.055
  435         502.638         502.638         701.019         879.072         892.103         892.103
  436         498.041         498.041         699.006         878.372         890.147         890.147
  437         493.398         493.398         696.591         878.005         888.186         888.186
  438         488.709         488.709         693.776         877.970         886.222         886.222
  439         483.973         483.973         690.563         878.262         884.254         884.254
  440         479.192         479.192         686.961         878.870         882.283         882.283
  441         474.365         474.365         682.980         879.782         880.310         880.310
  442         469.491         469.491         678.636         878.336         878.336         880.980
  443         464.571         464.571         673.945         876.360         876.360         882.447
  444         459.604         459.604         668.925         874.383         874.383         884.163
  445         454.591         454.591         663.594         872.406         872.406         886.109
  446         449.531         449.531         657.970         870.430         870.430         888.264
  447         444.426         444.426         652.071         868.455         868.455         890.610
  448         439.273         439.273         645.915         866.481         866.481         893.127
  449         434.074         434.074         639.517         864.509         864.509         895.798
  450         428.829         428.829         632.894         862.540         862.540         898.606
  451         423.538         423.538         626.059         860.575         860.575         901.535
  452         418.200         418.200         619.026         858.613         858.613         904.571
  453         412.816         412.816         611.808         856.656         856.656         907.701
  454         407.386         407.386         604.415         854.705         854.705         910.911
  455         401.910         401.910         596.858         852.759         852.759         914.191
  456         396.389         396.389         589.146         850.820         850.820         917.531
  457         390.822         390.822         581.289         848.889         848.889         920.919
  458         385.210         385.210         573.294         846.965         846.965         924.348
  459         379.553         379.553         565.169         845.051         845.051         927.809
  460         373.851         373.851         556.920         843.146         843.146         931.294
  461         368.104         368.104         548.554         841.251         841.251         934.797
  462         362.313         362.313         540.077         839.367         839.367         938.310
  463         356.478         356.478         531.494         837.496         837.496         941.829
  464         350.600         350.600         522.810         835.637         835.637         945.346
  465         344.678         344.678         514.030         833.791         833.791         948.857
  466         338.713         338.713         505.159         831.960         831.960         952.357
  467         332.706         332.706         496.199         830.144         830.144         955.841
  468         326.657         326.657         487.156         828.344         828.344         959.305
  469         320.566         320.566         478.033         826.562         826.562         962.745
  470         314.434         314.434         468.832         824.797         824.797         966.157
  471         308.261         308.261         459.559         823.050         823.050         969.537
  472         302.048         302.048         450.214         821.324         821.324         972.883
  473         295.795         295.795         440.802         819.617         819.617         976.190
  474         289.504         289.504         431.326         817.933         817.933         979.455
  475         283.173         283.173         421.787         816.270         816.270         982.677
  476         276.805         276.805         412.188         814.631         814.631         985.851
  477         270.399         270.399         402.533         813.017         813.017         988.976
  478         263.957         263.957         392.822         811.427         811.427         992.048
  479         257.479         257.479         383.059         809.864         809.864         995.067
  480         250.965         250.965         373.245         808.328         808.328         998.028
  481         244.416         244.416         363.382         806.820         806.820        1000.931
  482         237.834         237.834         353.473         805.341         805.341        1003.772
  483         231.218         231.218         343.520         803.892         803.892        1006.551
  484         224.570         224.570         333.524         802.474         802.474        1009.265
  485         217.890         217.890         323.486         801.088         801.088        1011.913
  486         211.179         211.179         313.410         799.735         799.735        1014.492
  487         204.438         204.438         303.296         798.416         798.416        1017.001
  488         197.668         197.668         293.146         797.131         797.131        1019.439
  489         190.869         190.869         282.962         795.882         795.882        1021.804
  490         184.042         184.042         272.746         794.670         794.670        1024.095
  491         177.189         177.189         262.498         793.495         793.495        1026.310
  492         170.310         170.310         252.220         792.358         792.358        1028.447
  493         163.406         163.406         241.914         791.261         791.261        1030.507
  494         156.478         156.478         231.581         790.203         790.203        1032.487
  495         149.527         149.527         221.223         789.186         789.186        1034.387
  496         142.553         142.553         210.840         788.211         788.211        1036.205
  497         135.559         135.559         200.435         787.278         787.278        1037.941
  498         128.544         128.544         190.008         786.389         786.389        1039.593
  499         121.510         121.510         179.561         785.543         785.543        1041.161
  500         114.458         114.458         169.095         784.741         784.741        1042.644
  501         107.389         107.389         158.611         783.985         783.985        1044.040
  502         100.304         100.304         148.111         783.274         783.274        1045.350
  503          93.203          93.203         137.595         782.610         782.610        1046.573
  504          86.088          86.088         127.064         781.993         781.993        1047.707
  505          78.960          78.960         116.521         781.423         781.423        1048.753
  506          71.821          71.821         105.966         780.901         780.901        1049.710
  507          64.670          64.670          95.400         780.427         780.427        1050.577
  508          57.509          57.509          84.824         780.002         780.002        1051.353
  509          50.340          50.340          74.240         779.626         779.626        1052.040
  510          43.163          43.163          63.648         779.300         779.300        1052.636
  511          35.979          35.979          53.050         779.024         779.024        1053.140
  512          28.790          28.790          42.446         778.797         778.797        1053.553
  513          21.596          21.596          31.838         778.620         778.620        1053.875
  514          14.399          14.399          21.227         778.494         778.494        1054.104
  515           7.200           7.200          10.614         778.418         778.418        1054.242
  516           0.000           0.000           0.000         778.393         778.393         778.393
  517           3.295           3.295          13.933         778.374         778.374        1054.308
  518           6.594           6.594          27.862         778.316         778.316        1054.367
  519           9.899           9.899          41.784         778.220         778.220        1054.465
  520          13.212          13.212          55.697         778.086         778.086        1054.603
  521          16.538          16.538          69.597         777.912         777.912        1054.780
  522          19.879          19.879          83.480         777.700         777.700        1054.995
  523          23.238          23.238          97.343         777.449         777.449        1055.249
  524          26.618          26.618         111.183         777.158         777.158        1055.541
  525          30.022          30.022         124.996         776.828         776.828        1055.870
  526          33.452          33.452         138.780         776.459         776.459        1056.238
  527          36.911          36.911         152.531         776.049         776.049        1056.642
  528          40.402          40.402         166.245         775.599         775.599        1057.082
  529          43.928          43.928         179.920         775.108         775.108        1057.558
  530          47.489          47.489         193.553         774.576         774.576        1058.070
  531          51.090          51.090         207.140         774.002         774.002        1058.616
  532          54.731          54.731         220.677         773.387         773.387        1059.196
  533          58.415          58.415         234.162         772.729         772.729        1059.809
  534          62.145          62.145         247.592         772.028         772.028        1060.455
  535          65.921          65.921         260.963         771.283         771.283        1061.132
  536          69.745          69.745         274.273         770.495         770.495        1061.840
  537          73.620          73.620         287.517         769.662         769.662        1062.577
  538          77.546          77.546         300.694         768.783         768.783        1063.343
  539          81.525          81.525         313.800         767.859         767.859        1064.137
  540          85.558          85.558         326.832         766.889         766.889        1064.958
  541          89.647          89.647         339.787         765.871         765.871        1065.804
  542          93.791          93.791         352.661         764.806         764.806        1066.675
  543          97.992          97.992         365.453         763.693         763.693        1067.570
  544         102.251         102.251         378.159         762.530         762.530        1068.487
  545         106.569         106.569         390.776         761.318         761.318        1069.425
  546         110.945         110.945         403.301         760.056         760.056        1070.383
  547         115.380         115.380         415.732         758.743         758.743        1071.359
  548         119.874         119.874         428.065         757.378         757.378        1072.353
  549         124.428         124.428         440.298         755.960         755.960        1073.363
  550         129.041         129.041         452.429         754.489         754.489        1074.387
  551         133.714         133.714         464.453         752.965         752.965        1075.425
  552         138.445         138.445         476.369         751.386         751.386        1076.475
  553         143.236         143.236         488.173         749.752         749.752        1077.536
  554         148.085         148.085         499.864         748.062         748.062        1078.606
  555         152.992         152.992         511.439         746.316         746.316        1079.683
  556         157.956         157.956         522.894         744.512         744.512        1080.767
  557         162.977         162.977         534.228         742.651         742.651        1081.856
  558         168.054         168.054         545.438         740.731         740.731        1082.948
  559         173.185         173.185         556.521         738.752         738.752        1084.042
  560         178.371         178.371         567.475         736.713         736.713        1085.136
  561         183.610         183.610         578.297         734.614         734.614        1086.230
  562         188.900         188.900         588.986         732.454         732.454        1087.321
  563         194.242         194.242         599.538         730.232         730.232        1088.409
  564         199.632         199.632         609.951         727.949         727.949        1089.491
  565         205.071         205.071         620.223         725.604         725.604        1090.566
  566         210.556         210.556         630.352         723.195         723.195        1091.633
  567         216.087         216.087         640.335         720.723         720.723        1092.690
  568         221.662         221.662         650.171         718.188         718.188        1093.737
  569         227.278         227.278         659.856         715.588         715.588        1094.771
  570         232.935         232.935         669.388         712.924         712.924        1095.791
  571         238.630         238.630         678.767         710.196         710.196        1096.796
  572         244.363         244.363         687.988         707.402         707.402        1097.784
  573         250.131         250.131         697.050         704.544         704.544        1098.755
  574         255.932         255.932         701.620         701.620         705.952        1099.707
  575         261.764         261.764         698.631         698.631         714.690        1100.639
  576         267.625         267.625         695.577         695.577         723.263        1101.550
  577         273.514         273.514         692.457         692.457         731.668        1102.438
  578         279.427         279.427         689.272         689.272         739.903        1103.303
  579         285.364         285.364         686.023         686.023         747.967        1104.144
  580         291.321         291.321         682.708         682.708         755.857        1104.959
  581         297.297         297.297         679.329         679.329         763.571        1105.748
  582         303.289         303.289         675.885         675.885         771.107        1106.511
  583         309.295         309.295         672.378         672.378         778.462        1107.245
  584         315.311         315.311         668.808         668.808         785.635        1107.952
  585         321.337         321.337         665.175         665.175         792.624        1108.630
  586         327.368         327.368         661.481         661.481         799.425        1109.279
  587         333.403         333.403         657.726         657.726         806.038        1109.898
  588         339.437         339.437         653.912         653.912         812.459        1110.487
  589         345.470         345.470         650.039         650.039         818.686        1111.047
  590         351.496         351.496         646.109         646.109         824.718        1111.577
  591         357.513         357.513         642.124         642.124         830.551        1112.076
  592         363.518         363.518         638.086         638.086         836.184        1112.546
  593         369.506         369.506         633.996         633.996         841.614        1112.987
  594         375.474         375.474         629.858         629.858         846.838        1113.398
  595         381.418         381.418         625.674         625.674         851.855        1113.781
  596         387.332         387.332         621.447         621.447         856.661        1114.136
  597         393.211         393.211         617.182         617.182         861.255        1114.463
  598         399.049         399.049         612.883         612.883         865.632        1114.764
  599         404.840         404.840         608.555         608.555         869.793        1115.040
  600         410.576         410.576         604.205         604.205         873.732        1115.290
  601         416.248         416.248         599.840         599.840         877.449        1115.518
  602         421.846         421.846         595.471         595.471         880.940        1115.722
  603         427.358         427.358         591.108         591.108         884.203        1115.906
  604         432.767         432.767         586.766         586.766         887.236        1116.069
  605         438.056         438.056         582.462         582.462         890.037        1116.213
  606         443.203         443.203         578.217         578.217         892.602        1116.340
  607         448.178         448.178         574.061         574.061         894.930        1116.450
  608         452.946         452.946         570.027         570.027         897.020        1116.545
  609         457.460         457.460         566.162         566.162         898.868        1116.626
  610         461.664         461.664         562.521         562.521         900.473        1116.694
  611         465.485         465.485         559.178         559.178         901.835        1116.749
  612         468.836         468.836         556.219         556.219         902.950        1116.794
  613         471.613         471.613         553.747         553.747         903.819        1116.827
  614         473.706         473.706         551.871         551.871         904.440        1116.851
  615         475.013         475.013         550.695         550.695         904.813        1116.865
  616         475.458         475.458         550.294         550.294         904.938        1116.870
