# Macroscopic dielectric function obtained with the BS equation.
#  RPA L0 with KS energies and KS wavefunctions     LOCAL FIELD EFFECTS INCLUDED
# RESONANT-ONLY calculation
# Coulomb term constructed with full W(G1,G2)
# Scissor operator energy =  0.8000 [eV]
# nstates included in the diagonalization = 96
# npweps  = 113
# npwwfn  = 283
# nbands  = 8
# loband  = 2
# nkibz   = 3
# nkbz    = 8
# Lorentzian broadening =  0.0000 [eV]
# List of q-points for the optical limit:
# q =  0.938821, 0.000000, 0.000000, [Reduced coords] 
# q =  0.000000, 0.938821, 0.000000, [Reduced coords] 
# q =  0.000000, 0.000000, 0.938821, [Reduced coords] 
# q =  0.000000, 0.813043, 0.813043, [Reduced coords] 
# q =  0.813043, 0.000000, 0.813043, [Reduced coords] 
# q =  0.813043, 0.813043, 0.000000, [Reduced coords] 
# omega [eV]    RE(eps(q=1)) IM(eps(q=1) RE(eps(q=2) ) ... DOS   IDOS
  0.000   55.7088    0.2854   55.6632    0.3545   55.6708    0.3535   55.6840    0.2675   55.7694    0.3415   55.7655    0.3499   -0.0000   -0.0000
  0.010   55.7093    0.2923   55.6637    0.3616   55.6714    0.3607   55.6846    0.2745   55.7699    0.3489   55.7661    0.3572   -0.0000   -0.0000
  0.020   55.7110    0.2993   55.6653    0.3688   55.6730    0.3678   55.6863    0.2815   55.7715    0.3562   55.7677    0.3645   -0.0000   -0.0000
  0.030   55.7138    0.3063   55.6681    0.3760   55.6758    0.3750   55.6891    0.2886   55.7743    0.3636   55.7705    0.3719   -0.0000   -0.0000
  0.040   55.7178    0.3133   55.6720    0.3832   55.6797    0.3822   55.6931    0.2957   55.7782    0.3710   55.7744    0.3793   -0.0000   -0.0000
  0.050   55.7228    0.3204   55.6770    0.3904   55.6847    0.3894   55.6981    0.3028   55.7832    0.3784   55.7794    0.3867   -0.0000   -0.0000
  0.060   55.7290    0.3274   55.6831    0.3977   55.6909    0.3966   55.7043    0.3099   55.7894    0.3858   55.7856    0.3941   -0.0000   -0.0000
  0.070   55.7364    0.3345   55.6904    0.4049   55.6981    0.4039   55.7116    0.3170   55.7967    0.3933   55.7929    0.4015   -0.0000   -0.0000
  0.080   55.7448    0.3416   55.6988    0.4122   55.7065    0.4112   55.7201    0.3242   55.8051    0.4008   55.8013    0.4090   -0.0000   -0.0000
  0.090   55.7544    0.3487   55.7083    0.4196   55.7161    0.4185   55.7297    0.3314   55.8147    0.4083   55.8109    0.4165   -0.0000   -0.0000
  0.100   55.7651    0.3558   55.7189    0.4269   55.7267    0.4259   55.7404    0.3386   55.8254    0.4158   55.8216    0.4241   -0.0000   -0.0000
  0.110   55.7770    0.3630   55.7307    0.4343   55.7385    0.4332   55.7522    0.3458   55.8372    0.4234   55.8334    0.4316   -0.0000   -0.0000
  0.120   55.7900    0.3702   55.7436    0.4417   55.7514    0.4406   55.7652    0.3531   55.8502    0.4310   55.8464    0.4392   -0.0000   -0.0000
  0.130   55.8041    0.3774   55.7576    0.4492   55.7655    0.4481   55.7793    0.3604   55.8643    0.4386   55.8605    0.4468   -0.0000   -0.0000
  0.140   55.8193    0.3847   55.7728    0.4566   55.7807    0.4555   55.7946    0.3677   55.8796    0.4463   55.8758    0.4545   -0.0000   -0.0000
  0.150   55.8357    0.3919   55.7891    0.4642   55.7970    0.4630   55.8110    0.3750   55.8960    0.4540   55.8922    0.4622   -0.0000   -0.0000
  0.160   55.8533    0.3992   55.8065    0.4717   55.8145    0.4706   55.8285    0.3824   55.9135    0.4617   55.9097    0.4699   -0.0000   -0.0000
  0.170   55.8719    0.4066   55.8251    0.4793   55.8331    0.4781   55.8472    0.3898   55.9322    0.4695   55.9284    0.4776   -0.0000   -0.0000
  0.180   55.8918    0.4139   55.8448    0.4869   55.8528    0.4857   55.8670    0.3972   55.9521    0.4773   55.9483    0.4854   -0.0000   -0.0000
  0.190   55.9128    0.4213   55.8657    0.4945   55.8737    0.4934   55.8879    0.4047   55.9731    0.4851   55.9692    0.4932   -0.0000   -0.0000
  0.200   55.9349    0.4288   55.8877    0.5022   55.8957    0.5010   55.9101    0.4121   55.9952    0.4930   55.9914    0.5011   -0.0000   -0.0000
  0.210   55.9582    0.4362   55.9109    0.5100   55.9189    0.5088   55.9333    0.4197   56.0185    0.5009   56.0147    0.5090   -0.0000   -0.0000
  0.220   55.9826    0.4437   55.9352    0.5177   55.9433    0.5165   55.9578    0.4272   56.0430    0.5088   56.0392    0.5169   -0.0000   -0.0000
  0.230   56.0082    0.4513   55.9607    0.5255   55.9688    0.5243   55.9834    0.4348   56.0686    0.5168   56.0648    0.5249   -0.0000   -0.0000
  0.240   56.0350    0.4589   55.9874    0.5334   55.9955    0.5321   56.0101    0.4425   56.0954    0.5249   56.0916    0.5329   -0.0000   -0.0000
  0.250   56.0629    0.4665   56.0152    0.5413   56.0233    0.5400   56.0380    0.4501   56.1234    0.5329   56.1196    0.5410   -0.0000   -0.0000
  0.260   56.0920    0.4741   56.0442    0.5492   56.0523    0.5479   56.0671    0.4578   56.1525    0.5410   56.1487    0.5491   -0.0000   -0.0000
  0.270   56.1223    0.4818   56.0743    0.5572   56.0825    0.5559   56.0974    0.4656   56.1828    0.5492   56.1790    0.5573   -0.0000   -0.0000
  0.280   56.1537    0.4896   56.1057    0.5652   56.1139    0.5639   56.1288    0.4734   56.2143    0.5574   56.2105    0.5655   -0.0000   -0.0000
  0.290   56.1864    0.4973   56.1382    0.5733   56.1464    0.5720   56.1615    0.4812   56.2470    0.5657   56.2432    0.5737   -0.0000   -0.0000
  0.300   56.2202    0.5052   56.1719    0.5814   56.1801    0.5801   56.1953    0.4891   56.2809    0.5740   56.2771    0.5820   -0.0000   -0.0000
  0.310   56.2552    0.5130   56.2068    0.5895   56.2150    0.5882   56.2303    0.4970   56.3160    0.5823   56.3122    0.5904   -0.0000   -0.0000
  0.320   56.2914    0.5209   56.2428    0.5978   56.2511    0.5964   56.2665    0.5050   56.3523    0.5907   56.3485    0.5987   -0.0000   -0.0000
  0.330   56.3289    0.5289   56.2801    0.6060   56.2884    0.6047   56.3039    0.5130   56.3897    0.5992   56.3859    0.6072   -0.0000   -0.0000
  0.340   56.3675    0.5369   56.3186    0.6143   56.3269    0.6130   56.3425    0.5211   56.4284    0.6077   56.4246    0.6157   -0.0000   -0.0000
  0.350   56.4073    0.5450   56.3583    0.6227   56.3666    0.6214   56.3823    0.5292   56.4683    0.6162   56.4645    0.6242   -0.0000   -0.0000
  0.360   56.4484    0.5531   56.3992    0.6312   56.4076    0.6298   56.4233    0.5373   56.5095    0.6249   56.5057    0.6329   -0.0000   -0.0000
  0.370   56.4906    0.5613   56.4413    0.6396   56.4497    0.6383   56.4656    0.5456   56.5518    0.6335   56.5480    0.6415   -0.0000   -0.0000
  0.380   56.5341    0.5695   56.4847    0.6482   56.4931    0.6468   56.5091    0.5538   56.5954    0.6423   56.5916    0.6503   -0.0000   -0.0000
  0.390   56.5789    0.5777   56.5292    0.6568   56.5377    0.6554   56.5538    0.5621   56.6402    0.6511   56.6364    0.6590   -0.0000   -0.0000
  0.400   56.6248    0.5861   56.5750    0.6654   56.5835    0.6640   56.5997    0.5705   56.6863    0.6599   56.6825    0.6679   -0.0000   -0.0000
  0.410   56.6721    0.5944   56.6221    0.6742   56.6306    0.6727   56.6469    0.5789   56.7336    0.6688   56.7298    0.6768   -0.0000   -0.0000
  0.420   56.7205    0.6029   56.6704    0.6830   56.6789    0.6815   56.6954    0.5874   56.7822    0.6778   56.7783    0.6858   -0.0000   -0.0000
  0.430   56.7703    0.6114   56.7200    0.6918   56.7285    0.6904   56.7451    0.5960   56.8320    0.6868   56.8282    0.6948   -0.0000   -0.0000
  0.440   56.8213    0.6199   56.7708    0.7007   56.7794    0.6993   56.7961    0.6046   56.8831    0.6959   56.8793    0.7039   -0.0000   -0.0000
  0.450   56.8735    0.6286   56.8229    0.7097   56.8315    0.7082   56.8483    0.6133   56.9355    0.7051   56.9316    0.7131   -0.0000   -0.0000
  0.460   56.9271    0.6373   56.8762    0.7188   56.8849    0.7173   56.9018    0.6220   56.9891    0.7144   56.9853    0.7223   -0.0000   -0.0000
  0.470   56.9819    0.6460   56.9309    0.7279   56.9396    0.7264   56.9566    0.6308   57.0441    0.7237   57.0402    0.7316   -0.0000   -0.0000
  0.480   57.0380    0.6548   56.9868    0.7371   56.9955    0.7356   57.0127    0.6396   57.1003    0.7331   57.0965    0.7410   -0.0000   -0.0000
  0.490   57.0955    0.6637   57.0441    0.7463   57.0528    0.7448   57.0701    0.6486   57.1579    0.7425   57.1540    0.7505   -0.0000   -0.0000
  0.500   57.1542    0.6727   57.1026    0.7557   57.1114    0.7541   57.1288    0.6576   57.2168    0.7521   57.2129    0.7600   -0.0000   -0.0000
  0.510   57.2142    0.6817   57.1625    0.7651   57.1713    0.7635   57.1889    0.6666   57.2769    0.7617   57.2731    0.7696   -0.0000   -0.0000
  0.520   57.2756    0.6908   57.2236    0.7746   57.2325    0.7730   57.2502    0.6758   57.3385    0.7714   57.3346    0.7793   -0.0000   -0.0000
  0.530   57.3384    0.6999   57.2862    0.7841   57.2950    0.7826   57.3129    0.6850   57.4013    0.7811   57.3975    0.7890   -0.0000   -0.0000
  0.540   57.4024    0.7092   57.3500    0.7938   57.3589    0.7922   57.3770    0.6943   57.4655    0.7910   57.4617    0.7989   -0.0000   -0.0000
  0.550   57.4678    0.7185   57.4152    0.8035   57.4241    0.8019   57.4424    0.7036   57.5311    0.8009   57.5272    0.8088   -0.0000   -0.0000
  0.560   57.5346    0.7279   57.4818    0.8133   57.4907    0.8117   57.5091    0.7131   57.5980    0.8109   57.5942    0.8188   -0.0000   -0.0000
  0.570   57.6028    0.7374   57.5497    0.8232   57.5587    0.8216   57.5772    0.7226   57.6663    0.8210   57.6625    0.8289   -0.0000   -0.0000
  0.580   57.6723    0.7469   57.6190    0.8332   57.6280    0.8316   57.6467    0.7322   57.7360    0.8312   57.7322    0.8391   -0.0000   -0.0000
  0.590   57.7432    0.7566   57.6897    0.8433   57.6987    0.8416   57.7176    0.7419   57.8071    0.8415   57.8032    0.8494   -0.0000   -0.0000
  0.600   57.8155    0.7663   57.7618    0.8534   57.7709    0.8518   57.7899    0.7516   57.8796    0.8519   57.8757    0.8598   -0.0000   -0.0000
  0.610   57.8893    0.7761   57.8353    0.8637   57.8444    0.8620   57.8636    0.7615   57.9535    0.8623   57.9496    0.8702   -0.0000   -0.0000
  0.620   57.9644    0.7860   57.9102    0.8740   57.9193    0.8724   57.9387    0.7714   58.0289    0.8729   58.0250    0.8808   -0.0000   -0.0000
  0.630   58.0410    0.7960   57.9865    0.8845   57.9957    0.8828   58.0153    0.7814   58.1056    0.8836   58.1017    0.8914   -0.0000   -0.0000
  0.640   58.1190    0.8061   58.0643    0.8950   58.0735    0.8933   58.0933    0.7916   58.1839    0.8943   58.1800    0.9022   -0.0000   -0.0000
  0.650   58.1985    0.8162   58.1436    0.9057   58.1528    0.9040   58.1727    0.8018   58.2635    0.9052   58.2596    0.9130   -0.0000   -0.0000
  0.660   58.2795    0.8265   58.2243    0.9164   58.2335    0.9147   58.2537    0.8121   58.3447    0.9161   58.3408    0.9240   -0.0000   -0.0000
  0.670   58.3619    0.8369   58.3064    0.9273   58.3158    0.9255   58.3361    0.8225   58.4273    0.9272   58.4234    0.9350   -0.0000   -0.0000
  0.680   58.4458    0.8473   58.3901    0.9382   58.3995    0.9365   58.4200    0.8330   58.5115    0.9384   58.5076    0.9462   -0.0000   -0.0000
  0.690   58.5313    0.8579   58.4753    0.9493   58.4847    0.9475   58.5054    0.8436   58.5971    0.9496   58.5932    0.9575   -0.0000   -0.0000
  0.700   58.6182    0.8685   58.5619    0.9604   58.5714    0.9587   58.5923    0.8543   58.6843    0.9610   58.6804    0.9689   -0.0000   -0.0000
  0.710   58.7067    0.8793   58.6501    0.9717   58.6596    0.9699   58.6807    0.8651   58.7730    0.9725   58.7691    0.9804   -0.0000   -0.0000
  0.720   58.7967    0.8902   58.7399    0.9831   58.7494    0.9813   58.7707    0.8760   58.8632    0.9842   58.8593    0.9920   -0.0000   -0.0000
  0.730   58.8883    0.9012   58.8312    0.9946   58.8407    0.9928   58.8622    0.8871   58.9550    0.9959   58.9511    1.0037   -0.0000   -0.0000
  0.740   58.9814    0.9123   58.9240    1.0062   58.9336    1.0044   58.9554    0.8982   59.0484    1.0078   59.0445    1.0156   -0.0000   -0.0000
  0.750   59.0762    0.9235   59.0185    1.0180   59.0281    1.0162   59.0500    0.9094   59.1434    1.0197   59.1395    1.0276   -0.0000   -0.0000
  0.760   59.1725    0.9348   59.1145    1.0298   59.1241    1.0280   59.1463    0.9208   59.2400    1.0319   59.2360    1.0397   -0.0000   -0.0000
  0.770   59.2704    0.9463   59.2121    1.0418   59.2218    1.0400   59.2443    0.9323   59.3382    1.0441   59.3342    1.0519   -0.0000   -0.0000
  0.780   59.3700    0.9578   59.3114    1.0540   59.3211    1.0521   59.3438    0.9439   59.4380    1.0565   59.4341    1.0643   -0.0000   -0.0000
  0.790   59.4712    0.9695   59.4123    1.0662   59.4221    1.0644   59.4450    0.9556   59.5395    1.0689   59.5355    1.0768   -0.0000   -0.0000
  0.800   59.5741    0.9813   59.5149    1.0786   59.5247    1.0767   59.5478    0.9675   59.6426    1.0816   59.6387    1.0894   -0.0000   -0.0000
  0.810   59.6787    0.9933   59.6191    1.0911   59.6290    1.0893   59.6523    0.9795   59.7475    1.0943   59.7435    1.1022   -0.0000   -0.0000
  0.820   59.7849    1.0053   59.7250    1.1038   59.7349    1.1019   59.7586    0.9916   59.8540    1.1073   59.8501    1.1151   -0.0000   -0.0000
  0.830   59.8929    1.0175   59.8327    1.1166   59.8426    1.1147   59.8665    1.0038   59.9623    1.1203   59.9583    1.1281   -0.0000   -0.0000
  0.840   60.0026    1.0299   59.9420    1.1295   59.9520    1.1276   59.9761    1.0162   60.0723    1.1335   60.0683    1.1413   -0.0000   -0.0000
  0.850   60.1140    1.0424   60.0531    1.1426   60.0631    1.1407   60.0875    1.0287   60.1840    1.1469   60.1800    1.1547   -0.0000   -0.0000
  0.860   60.2272    1.0550   60.1660    1.1559   60.1760    1.1539   60.2007    1.0414   60.2975    1.1604   60.2935    1.1682   -0.0000   -0.0000
  0.870   60.3422    1.0678   60.2806    1.1692   60.2907    1.1673   60.3157    1.0542   60.4128    1.1740   60.4088    1.1818   -0.0000   -0.0000
  0.880   60.4590    1.0807   60.3970    1.1828   60.4072    1.1808   60.4324    1.0671   60.5299    1.1878   60.5259    1.1956   -0.0000   -0.0000
  0.890   60.5776    1.0937   60.5152    1.1965   60.5254    1.1945   60.5510    1.0802   60.6488    1.2018   60.6448    1.2096   -0.0000   -0.0000
  0.900   60.6981    1.1069   60.6353    1.2104   60.6456    1.2084   60.6714    1.0935   60.7696    1.2159   60.7656    1.2237   -0.0000   -0.0000
  0.910   60.8204    1.1203   60.7572    1.2244   60.7675    1.2224   60.7936    1.1069   60.8923    1.2303   60.8882    1.2380   -0.0000   -0.0000
  0.920   60.9446    1.1338   60.8810    1.2386   60.8914    1.2366   60.9178    1.1205   61.0168    1.2447   61.0128    1.2525   -0.0000   -0.0000
  0.930   61.0707    1.1475   61.0067    1.2530   61.0171    1.2510   61.0438    1.1342   61.1432    1.2594   61.1392    1.2672   -0.0000   -0.0000
  0.940   61.1987    1.1614   61.1344    1.2675   61.1448    1.2655   61.1718    1.1481   61.2716    1.2742   61.2676    1.2820   -0.0000   -0.0000
  0.950   61.3286    1.1754   61.2639    1.2822   61.2744    1.2802   61.3017    1.1622   61.4019    1.2892   61.3979    1.2970   -0.0000   -0.0000
  0.960   61.4606    1.1896   61.3954    1.2971   61.4060    1.2951   61.4336    1.1764   61.5342    1.3044   61.5302    1.3122   -0.0000   -0.0000
  0.970   61.5945    1.2040   61.5289    1.3122   61.5395    1.3102   61.5675    1.1908   61.6685    1.3198   61.6645    1.3276   -0.0000   -0.0000
  0.980   61.7304    1.2185   61.6644    1.3275   61.6751    1.3255   61.7034    1.2054   61.8048    1.3354   61.8008    1.3432   -0.0000   -0.0000
  0.990   61.8684    1.2333   61.8020    1.3430   61.8127    1.3409   61.8413    1.2202   61.9432    1.3512   61.9391    1.3589   -0.0000   -0.0000
  1.000   62.0084    1.2482   61.9416    1.3587   61.9523    1.3566   61.9813    1.2352   62.0836    1.3672   62.0796    1.3749   -0.0000   -0.0000
  1.010   62.1506    1.2633   62.0833    1.3745   62.0940    1.3724   62.1234    1.2503   62.2262    1.3833   62.2221    1.3911   -0.0000   -0.0000
  1.020   62.2948    1.2786   62.2270    1.3906   62.2379    1.3885   62.2676    1.2657   62.3708    1.3997   62.3667    1.4075   -0.0000   -0.0000
  1.030   62.4412    1.2941   62.3730    1.4069   62.3838    1.4048   62.4139    1.2812   62.5176    1.4164   62.5135    1.4241   -0.0000   -0.0000
  1.040   62.5897    1.3098   62.5210    1.4234   62.5320    1.4213   62.5624    1.2970   62.6666    1.4332   62.6625    1.4409   -0.0000   -0.0000
  1.050   62.7405    1.3258   62.6713    1.4401   62.6823    1.4380   62.7131    1.3130   62.8177    1.4502   62.8137    1.4580   -0.0000   -0.0000
  1.060   62.8934    1.3419   62.8238    1.4571   62.8348    1.4549   62.8660    1.3291   62.9711    1.4675   62.9671    1.4753   -0.0000   -0.0000
  1.070   63.0486    1.3582   62.9785    1.4742   62.9896    1.4721   63.0212    1.3455   63.1268    1.4850   63.1227    1.4928   -0.0000   -0.0000
  1.080   63.2061    1.3748   63.1355    1.4916   63.1466    1.4895   63.1787    1.3622   63.2847    1.5028   63.2806    1.5105   -0.0000   -0.0000
  1.090   63.3659    1.3916   63.2947    1.5093   63.3059    1.5071   63.3384    1.3790   63.4450    1.5208   63.4409    1.5285   -0.0000   -0.0000
  1.100   63.5280    1.4086   63.4564    1.5272   63.4676    1.5250   63.5005    1.3961   63.6076    1.5390   63.6035    1.5467   -0.0000   -0.0000
  1.110   63.6925    1.4259   63.6203    1.5453   63.6316    1.5431   63.6650    1.4134   63.7726    1.5575   63.7685    1.5652   -0.0000   -0.0000
  1.120   63.8594    1.4434   63.7867    1.5637   63.7981    1.5615   63.8318    1.4309   63.9400    1.5762   63.9359    1.5840   -0.0000   -0.0000
  1.130   64.0288    1.4611   63.9555    1.5823   63.9669    1.5801   64.0011    1.4487   64.1098    1.5952   64.1057    1.6030   -0.0000   -0.0000
  1.140   64.2006    1.4791   64.1268    1.6012   64.1382    1.5990   64.1729    1.4668   64.2822    1.6145   64.2780    1.6223   -0.0000   -0.0000
  1.150   64.3749    1.4974   64.3005    1.6204   64.3120    1.6182   64.3472    1.4851   64.4570    1.6341   64.4529    1.6418   -0.0000   -0.0000
  1.160   64.5517    1.5159   64.4768    1.6398   64.4884    1.6376   64.5240    1.5037   64.6344    1.6539   64.6302    1.6616   -0.0000   -0.0000
  1.170   64.7312    1.5347   64.6556    1.6596   64.6673    1.6573   64.7033    1.5225   64.8143    1.6741   64.8102    1.6818   -0.0000   -0.0000
  1.180   64.9132    1.5537   64.8370    1.6796   64.8488    1.6773   64.8853    1.5416   64.9969    1.6945   64.9928    1.7022   -0.0000   -0.0000
  1.190   65.0978    1.5731   65.0211    1.6999   65.0329    1.6976   65.0700    1.5610   65.1821    1.7152   65.1780    1.7229   -0.0000   -0.0000
  1.200   65.2852    1.5927   65.2079    1.7205   65.2197    1.7182   65.2573    1.5807   65.3701    1.7362   65.3659    1.7439   -0.0000   -0.0000
  1.210   65.4753    1.6126   65.3973    1.7414   65.4092    1.7391   65.4473    1.6007   65.5607    1.7576   65.5566    1.7653   -0.0000   -0.0000
  1.220   65.6681    1.6328   65.5895    1.7627   65.6015    1.7604   65.6401    1.6209   65.7541    1.7792   65.7500    1.7869   -0.0000   -0.0000
  1.230   65.8638    1.6534   65.7845    1.7842   65.7966    1.7819   65.8357    1.6415   65.9504    1.8012   65.9462    1.8089   -0.0000   -0.0000
  1.240   66.0622    1.6742   65.9824    1.8061   65.9945    1.8038   66.0342    1.6624   66.1495    1.8235   66.1453    1.8312   -0.0000   -0.0000
  1.250   66.2636    1.6954   66.1831    1.8283   66.1952    1.8260   66.2355    1.6836   66.3515    1.8462   66.3473    1.8539   -0.0000   -0.0000
  1.260   66.4679    1.7168   66.3867    1.8509   66.3989    1.8486   66.4398    1.7052   66.5564    1.8692   66.5523    1.8769   -0.0000   -0.0000
  1.270   66.6752    1.7387   66.5933    1.8738   66.6056    1.8715   66.6470    1.7271   66.7644    1.8926   66.7602    1.9003   -0.0000   -0.0000
  1.280   66.8855    1.7608   66.8029    1.8971   66.8153    1.8947   66.8573    1.7493   66.9753    1.9164   66.9711    1.9240   -0.0000   -0.0000
  1.290   67.0989    1.7833   67.0156    1.9207   67.0280    1.9183   67.0706    1.7719   67.1894    1.9405   67.1852    1.9481   -0.0000   -0.0000
  1.300   67.3154    1.8062   67.2313    1.9447   67.2438    1.9424   67.2871    1.7948   67.4066    1.9650   67.4024    1.9726   -0.0000   -0.0000
  1.310   67.5350    1.8294   67.4502    1.9691   67.4628    1.9667   67.5067    1.8181   67.6269    1.9899   67.6227    1.9975   -0.0000   -0.0000
  1.320   67.7579    1.8530   67.6724    1.9939   67.6850    1.9915   67.7296    1.8418   67.8505    2.0152   67.8463    2.0228   -0.0000   -0.0000
  1.330   67.9840    1.8770   67.8977    2.0191   67.9105    2.0167   67.9557    1.8659   68.0774    2.0409   68.0731    2.0485   -0.0000   -0.0000
  1.340   68.2135    1.9014   68.1264    2.0447   68.1392    2.0423   68.1851    1.8903   68.3076    2.0670   68.3033    2.0747   -0.0000   -0.0000
  1.350   68.4463    1.9262   68.3585    2.0707   68.3714    2.0683   68.4179    1.9152   68.5411    2.0936   68.5369    2.1012   -0.0000   -0.0000
  1.360   68.6826    1.9514   68.5939    2.0972   68.6069    2.0948   68.6542    1.9405   68.7782    2.1206   68.7740    2.1282   -0.0000   -0.0000
  1.370   68.9224    1.9770   68.8329    2.1241   68.8459    2.1217   68.8939    1.9662   69.0187    2.1481   69.0145    2.1557   -0.0000   -0.0000
  1.380   69.1657    2.0031   69.0753    2.1515   69.0885    2.1490   69.1372    1.9923   69.2628    2.1760   69.2586    2.1836   -0.0000   -0.0000
  1.390   69.4126    2.0296   69.3214    2.1793   69.3346    2.1769   69.3841    2.0189   69.5105    2.2044   69.5063    2.2120   -0.0000   -0.0000
  1.400   69.6632    2.0566   69.5711    2.2076   69.5844    2.2051   69.6346    2.0460   69.7619    2.2333   69.7577    2.2409   -0.0000   -0.0000
  1.410   69.9175    2.0840   69.8245    2.2364   69.8379    2.2339   69.8889    2.0735   70.0171    2.2627   70.0128    2.2703   -0.0000   -0.0000
  1.420   70.1756    2.1119   70.0817    2.2657   70.0952    2.2632   70.1470    2.1015   70.2760    2.2926   70.2718    2.3002   -0.0000   -0.0000
  1.430   70.4375    2.1403   70.3428    2.2955   70.3563    2.2930   70.4089    2.1300   70.5389    2.3230   70.5346    2.3306   -0.0000   -0.0000
  1.440   70.7034    2.1692   70.6078    2.3258   70.6214    2.3233   70.6748    2.1590   70.8057    2.3540   70.8014    2.3615   -0.0000   -0.0000
  1.450   70.9733    2.1986   70.8767    2.3566   70.8904    2.3542   70.9447    2.1885   71.0764    2.3855   71.0722    2.3931   -0.0000   -0.0000
  1.460   71.2473    2.2285   71.1497    2.3880   71.1635    2.3856   71.2186    2.2185   71.3513    2.4176   71.3471    2.4251   -0.0000   -0.0000
  1.470   71.5254    2.2590   71.4268    2.4200   71.4407    2.4175   71.4967    2.2491   71.6304    2.4502   71.6261    2.4578   -0.0000   -0.0000
  1.480   71.8077    2.2900   71.7081    2.4526   71.7221    2.4501   71.7791    2.2803   71.9136    2.4835   71.9094    2.4910   -0.0000   -0.0000
  1.490   72.0943    2.3216   71.9937    2.4857   72.0077    2.4832   72.0657    2.3120   72.2012    2.5173   72.1970    2.5249   -0.0000   -0.0000
  1.500   72.3853    2.3538   72.2836    2.5195   72.2978    2.5170   72.3567    2.3443   72.4932    2.5518   72.4890    2.5593   -0.0000   -0.0000
  1.510   72.6807    2.3866   72.5780    2.5539   72.5922    2.5514   72.6521    2.3772   72.7897    2.5870   72.7854    2.5945   -0.0000   -0.0000
  1.520   72.9807    2.4200   72.8769    2.5889   72.8912    2.5864   72.9521    2.4107   73.0907    2.6227   73.0865    2.6302   -0.0000   -0.0000
  1.530   73.2853    2.4541   73.1804    2.6246   73.1948    2.6221   73.2567    2.4449   73.3964    2.6592   73.3921    2.6667   -0.0000   -0.0000
  1.540   73.5946    2.4888   73.4886    2.6610   73.5031    2.6584   73.5660    2.4797   73.7068    2.6964   73.7025    2.7039   -0.0000   -0.0000
  1.550   73.9087    2.5241   73.8016    2.6980   73.8162    2.6955   73.8802    2.5152   74.0220    2.7343   74.0177    2.7417   -0.0000   -0.0000
  1.560   74.2278    2.5601   74.1194    2.7358   74.1341    2.7333   74.1992    2.5514   74.3421    2.7729   74.3379    2.7803   -0.0000   -0.0000
  1.570   74.5518    2.5969   74.4422    2.7743   74.4570    2.7718   74.5232    2.5883   74.6673    2.8122   74.6630    2.8197   -0.0000   -0.0000
  1.580   74.8809    2.6344   74.7701    2.8136   74.7850    2.8110   74.8524    2.6259   74.9975    2.8524   74.9933    2.8598   -0.0000   -0.0000
  1.590   75.2152    2.6726   75.1032    2.8536   75.1182    2.8511   75.1867    2.6643   75.3330    2.8933   75.3288    2.9007   -0.0000   -0.0000
  1.600   75.5547    2.7115   75.4415    2.8945   75.4566    2.8919   75.5263    2.7034   75.6738    2.9350   75.6696    2.9424   -0.0000   -0.0000
  1.610   75.8997    2.7513   75.7852    2.9361   75.8004    2.9336   75.8714    2.7433   76.0201    2.9776   76.0158    2.9850   -0.0000   -0.0000
  1.620   76.2502    2.7919   76.1343    2.9786   76.1497    2.9761   76.2219    2.7840   76.3718    3.0211   76.3676    3.0284   -0.0000   -0.0000
  1.630   76.6064    2.8332   76.4891    3.0220   76.5046    3.0194   76.5781    2.8256   76.7292    3.0654   76.7250    3.0727   -0.0000   -0.0000
  1.640   76.9682    2.8755   76.8496    3.0662   76.8652    3.0637   76.9400    2.8680   77.0924    3.1107   77.0882    3.1180   -0.0000   -0.0000
  1.650   77.3360    2.9186   77.2159    3.1114   77.2316    3.1088   77.3078    2.9114   77.4615    3.1568   77.4573    3.1641   -0.0000   -0.0000
  1.660   77.7097    2.9627   77.5882    3.1575   77.6040    3.1549   77.6816    2.9556   77.8366    3.2040   77.8324    3.2113   -0.0000   -0.0000
  1.670   78.0895    3.0076   77.9666    3.2046   77.9824    3.2020   78.0615    3.0008   78.2178    3.2522   78.2137    3.2594   -0.0000   -0.0000
  1.680   78.4756    3.0535   78.3511    3.2527   78.3671    3.2501   78.4476    3.0469   78.6053    3.3013   78.6012    3.3086   -0.0000   -0.0000
  1.690   78.8680    3.1004   78.7420    3.3018   78.7581    3.2992   78.8401    3.0940   78.9992    3.3516   78.9951    3.3588   -0.0000   -0.0000
  1.700   79.2670    3.1484   79.1394    3.3519   79.1557    3.3494   79.2392    3.1422   79.3997    3.4029   79.3956    3.4101   -0.0000   -0.0000
  1.710   79.6726    3.1973   79.5434    3.4032   79.5598    3.4006   79.6449    3.1914   79.8068    3.4553   79.8027    3.4625   -0.0000   -0.0000
  1.720   80.0850    3.2474   79.9542    3.4555   79.9707    3.4530   80.0574    3.2416   80.2208    3.5089   80.2167    3.5160   -0.0000   -0.0000
  1.730   80.5044    3.2986   80.3719    3.5091   80.3885    3.5065   80.4769    3.2931   80.6418    3.5637   80.6377    3.5708   -0.0000   -0.0000
  1.740   80.9309    3.3509   80.7967    3.5638   80.8134    3.5612   80.9035    3.3456   81.0699    3.6197   81.0658    3.6268   -0.0000   -0.0000
  1.750   81.3646    3.4044   81.2287    3.6197   81.2456    3.6172   81.3374    3.3994   81.5054    3.6770   81.5013    3.6840   -0.0000   -0.0000
  1.760   81.8059    3.4591   81.6681    3.6770   81.6852    3.6744   81.7788    3.4544   81.9483    3.7355   81.9442    3.7426   -0.0000   -0.0000
  1.770   82.2547    3.5150   82.1151    3.7355   82.1323    3.7329   82.2278    3.5106   82.3989    3.7955   82.3948    3.8024   -0.0000   -0.0000
  1.780   82.7113    3.5723   82.5699    3.7953   82.5872    3.7928   82.6845    3.5682   82.8573    3.8568   82.8533    3.8637   -0.0000   -0.0000
  1.790   83.1759    3.6309   83.0326    3.8566   83.0500    3.8541   83.1493    3.6271   83.3237    3.9195   83.3197    3.9264   -0.0000   -0.0000
  1.800   83.6487    3.6909   83.5034    3.9193   83.5209    3.9168   83.6223    3.6874   83.7983    3.9837   83.7944    3.9906   -0.0000   -0.0000
  1.810   84.1298    3.7523   83.9825    3.9835   84.0002    3.9810   84.1036    3.7491   84.2814    4.0494   84.2774    4.0563   -0.0000   -0.0000
  1.820   84.6195    3.8152   84.4701    4.0492   84.4880    4.0467   84.5935    3.8124   84.7730    4.1168   84.7691    4.1236   -0.0000   -0.0000
  1.830   85.1180    3.8796   84.9665    4.1165   84.9845    4.1140   85.0921    3.8771   85.2735    4.1857   85.2696    4.1925   -0.0000   -0.0000
  1.840   85.6254    3.9456   85.4718    4.1854   85.4899    4.1829   85.5998    3.9435   85.7830    4.2563   85.7791    4.2630   -0.0000   -0.0000
  1.850   86.1421    4.0132   85.9862    4.2560   86.0045    4.2536   86.1167    4.0115   86.3017    4.3287   86.2979    4.3354   -0.0000   -0.0000
  1.860   86.6682    4.0825   86.5101    4.3284   86.5285    4.3259   86.6431    4.0812   86.8300    4.4028   86.8262    4.4095   -0.0000   -0.0000
  1.870   87.2040    4.1536   87.0435    4.4026   87.0621    4.4001   87.1791    4.1527   87.3680    4.4789   87.3642    4.4855   -0.0000   -0.0000
  1.880   87.7497    4.2264   87.5868    4.4786   87.6056    4.4762   87.7251    4.2259   87.9159    4.5568   87.9122    4.5633   -0.0000   -0.0000
  1.890   88.3056    4.3011   88.1403    4.5566   88.1592    4.5542   88.2813    4.3011   88.4741    4.6367   88.4704    4.6432   -0.0000   -0.0000
  1.900   88.8720    4.3778   88.7041    4.6366   88.7232    4.6341   88.8480    4.3782   89.0428    4.7187   89.0392    4.7252   -0.0000   -0.0000
  1.910   89.4491    4.4564   89.2786    4.7186   89.2979    4.7162   89.4254    4.4573   89.6223    4.8029   89.6187    4.8093   -0.0000   -0.0000
  1.920   90.0372    4.5371   89.8641    4.8028   89.8835    4.8004   90.0138    4.5385   90.2129    4.8892   90.2093    4.8955   -0.0000   -0.0000
  1.930   90.6366    4.6200   90.4608    4.8892   90.4804    4.8868   90.6136    4.6219   90.8148    4.9779   90.8113    4.9841   -0.0000   -0.0000
  1.940   91.2476    4.7050   91.0690    4.9779   91.0888    4.9756   91.2250    4.7075   91.4284    5.0689   91.4249    5.0751   -0.0000   -0.0000
  1.950   91.8705    4.7924   91.6891    5.0690   91.7090    5.0667   91.8483    4.7955   92.0540    5.1623   92.0506    5.1685   -0.0000   -0.0000
  1.960   92.5057    4.8822   92.3213    5.1626   92.3415    5.1603   92.4839    4.8858   92.6919    5.2584   92.6885    5.2644   -0.0000   -0.0000
  1.970   93.1535    4.9745   92.9661    5.2587   92.9864    5.2565   93.1321    4.9787   93.3425    5.3570   93.3392    5.3630   -0.0000   -0.0000
  1.980   93.8142    5.0693   93.6237    5.3576   93.6442    5.3553   93.7933    5.0742   94.0061    5.4585   94.0028    5.4644   -0.0000   -0.0000
  1.990   94.4883    5.1668   94.2946    5.4592   94.3153    5.4569   94.4679    5.1724   94.6831    5.5628   94.6799    5.5686   -0.0000   -0.0000
  2.000   95.1760    5.2671   94.9790    5.5636   95.0000    5.5614   95.1562    5.2733   95.3739    5.6700   95.3707    5.6758   -0.0000   -0.0000
  2.010   95.8779    5.3703   95.6775    5.6711   95.6986    5.6689   95.8586    5.3772   96.0788    5.7803   96.0758    5.7860   -0.0000   -0.0000
  2.020   96.5942    5.4765   96.3904    5.7816   96.4117    5.7795   96.5755    5.4842   96.7984    5.8939   96.7954    5.8995   -0.0000   -0.0000
  2.030   97.3256    5.5858   97.1181    5.8954   97.1397    5.8933   97.3074    5.5943   97.5329    6.0108   97.5300    6.0163   -0.0000   -0.0000
  2.040   98.0722    5.6983   97.8611    6.0125   97.8829    6.0105   98.0547    5.7076   98.2830    6.1311   98.2802    6.1365   -0.0000   -0.0000
  2.050   98.8348    5.8143   98.6199    6.1332   98.6419    6.1312   98.8180    5.8244   99.0490    6.2551   99.0463    6.2604   -0.0000   -0.0000
  2.060   99.6137    5.9337   99.3949    6.2574   99.4171    6.2555   99.5976    5.9448   99.8314    6.3828   99.8288    6.3880   -0.0000   -0.0000
  2.070  100.4094    6.0569  100.1866    6.3855  100.2090    6.3836  100.3940    6.0688  100.6308    6.5144  100.6282    6.5195   -0.0000   -0.0000
  2.080  101.2225    6.1838  100.9955    6.5175  101.0182    6.5156  101.2079    6.1968  101.4476    6.6501  101.4452    6.6551   -0.0000   -0.0000
  2.090  102.0535    6.3147  101.8222    6.6536  101.8451    6.6518  102.0397    6.3287  102.2825    6.7900  102.2801    6.7949   -0.0000   -0.0000
  2.100  102.9030    6.4498  102.6673    6.7940  102.6905    6.7922  102.8901    6.4648  103.1359    6.9344  103.1337    6.9392   -0.0000   -0.0000
  2.110  103.7716    6.5892  103.5313    6.9388  103.5547    6.9371  103.7596    6.6054  104.0086    7.0834  104.0065    7.0880   -0.0000   -0.0000
  2.120  104.6599    6.7332  104.4149    7.0884  104.4386    7.0867  104.6488    6.7505  104.9010    7.2372  104.8991    7.2417   -0.0000   -0.0000
  2.130  105.5685    6.8818  105.3187    7.2428  105.3426    7.2412  105.5584    6.9004  105.8140    7.3961  105.8121    7.4005   -0.0000   -0.0000
  2.140  106.4982    7.0354  106.2433    7.4023  106.2675    7.4007  106.4892    7.0552  106.7481    7.5603  106.7464    7.5645   -0.0000   -0.0000
  2.150  107.4496    7.1942  107.1896    7.5671  107.2140    7.5656  107.4417    7.2153  107.7041    7.7299  107.7025    7.7340   -0.0000   -0.0000
  2.160  108.4236    7.3584  108.1581    7.7375  108.1829    7.7361  108.4167    7.3809  108.6827    7.9054  108.6813    7.9093   -0.0000   -0.0000
  2.170  109.4207    7.5282  109.1497    7.9137  109.1748    7.9124  109.4151    7.5522  109.6847    8.0868  109.6834    8.0905   -0.0000   -0.0000
  2.180  110.4420    7.7039  110.1652    8.0960  110.1905    8.0948  110.4377    7.7295  110.7109    8.2746  110.7098    8.2781   -0.0000   -0.0000
  2.190  111.4882    7.8859  111.2054    8.2847  111.2311    8.2835  111.4852    7.9131  111.7622    8.4690  111.7613    8.4724   -0.0000   -0.0000
  2.200  112.5602    8.0743  112.2713    8.4801  112.2972    8.4790  112.5586    8.1032  112.8395    8.6703  112.8388    8.6735   -0.0000   -0.0000
  2.210  113.6589    8.2696  113.3637    8.6825  113.3899    8.6815  113.6589    8.3003  113.9437    8.8789  113.9432    8.8819   -0.0000   -0.0000
  2.220  114.7854    8.4720  114.4835    8.8922  114.5101    8.8914  114.7869    8.5045  115.0758    9.0951  115.0755    9.0979   -0.0000   -0.0000
  2.230  115.9407    8.6819  115.6319    9.1097  115.6588    9.1090  115.9438    8.7165  116.2369    9.3194  116.2368    9.3220   -0.0000   -0.0000
  2.240  117.1258    8.8997  116.8099    9.3353  116.8371    9.3347  117.1307    8.9364  117.4280    9.5520  117.4282    9.5544   -0.0000   -0.0000
  2.250  118.3419    9.1259  118.0186    9.5695  118.0462    9.5690  118.3486    9.1647  118.6503    9.7936  118.6507    9.7957   -0.0000   -0.0000
  2.260  119.5902    9.3607  119.2592    9.8126  119.2872    9.8122  119.5988    9.4019  119.9050   10.0444  119.9056   10.0463   -0.0000   -0.0000
  2.270  120.8719    9.6048  120.5330   10.0652  120.5613   10.0649  120.8826    9.6483  121.1933   10.3051  121.1942   10.3067   -0.0000   -0.0000
  2.280  122.1884    9.8585  121.8412   10.3277  121.8699   10.3276  122.2013    9.9047  122.5166   10.5761  122.5178   10.5775   -0.0000   -0.0000
  2.290  123.5411   10.1225  123.1852   10.6007  123.2143   10.6007  123.5562   10.1713  123.8763   10.8580  123.8778   10.8591   -0.0000   -0.0000
  2.300  124.9314   10.3973  124.5665   10.8848  124.5960   10.8850  124.9489   10.4489  125.2739   11.1514  125.2757   11.1522   -0.0000   -0.0000
  2.310  126.3609   10.6834  125.9867   11.1806  126.0165   11.1809  126.3809   10.7381  126.7109   11.4570  126.7131   11.4575   -0.0000   -0.0000
  2.320  127.8312   10.9815  127.4472   11.4886  127.4775   11.4892  127.8538   11.0394  128.1890   11.7753  128.1916   11.7755   -0.0000   -0.0000
  2.330  129.3441   11.2924  128.9500   11.8098  128.9806   11.8105  129.3695   11.3536  129.7099   12.1073  129.7129   12.1071   -0.0000   -0.0000
  2.340  130.9014   11.6167  130.4966   12.1447  130.5277   12.1456  130.9297   11.6815  131.2755   12.4536  131.2789   12.4531   -0.0000   -0.0000
  2.350  132.5050   11.9553  132.0891   12.4943  132.1207   12.4954  132.5365   12.0239  132.8877   12.8151  132.8916   12.8142   -0.0000   -0.0000
  2.360  134.1570   12.3090  133.7295   12.8593  133.7616   12.8606  134.1917   12.3816  134.5486   13.1928  134.5529   13.1915   -0.0000   -0.0000
  2.370  135.8596   12.6787  135.4200   13.2407  135.4525   13.2423  135.8978   12.7555  136.2604   13.5875  136.2652   13.5858   -0.0000   -0.0000
  2.380  137.6150   13.0655  137.1627   13.6396  137.1957   13.6414  137.6568   13.1468  138.0253   14.0004  138.0307   13.9983   -0.0000   -0.0000
  2.390  139.4257   13.4704  138.9601   14.0570  138.9937   14.0591  139.4714   13.5564  139.8459   14.4327  139.8519   14.4301   -0.0000   -0.0000
  2.400  141.2943   13.8945  140.8148   14.4941  140.8489   14.4965  141.3441   13.9857  141.7248   14.8855  141.7314   14.8825   -0.0000   -0.0000
  2.410  143.2236   14.3391  142.7295   14.9522  142.7642   14.9548  143.2778   14.4357  143.6647   15.3602  143.6719   15.3566   -0.0000   -0.0000
  2.420  145.2165   14.8056  144.7071   15.4327  144.7423   15.4356  145.2753   14.9080  145.6687   15.8582  145.6765   15.8542   -0.0000   -0.0000
  2.430  147.2762   15.2955  146.7507   15.9370  146.7865   15.9403  147.3398   15.4039  147.7397   16.3812  147.7484   16.3766   -0.0000   -0.0000
  2.440  149.4059   15.8103  148.8635   16.4668  148.8999   16.4704  149.4747   15.9253  149.8813   16.9307  149.8907   16.9256   -0.0000   -0.0000
  2.450  151.6093   16.3518  151.0491   17.0238  151.0861   17.0278  151.6836   16.4738  152.0970   17.5088  152.1073   17.5030   -0.0000   -0.0000
  2.460  153.8902   16.9218  153.3112   17.6100  153.3488   17.6144  153.9702   17.0513  154.3906   18.1173  154.4018   18.1109   -0.0000   -0.0000
  2.470  156.2526   17.5225  155.6538   18.2275  155.6921   18.2323  156.3387   17.6599  156.7663   18.7586  156.7784   18.7515   -0.0000   -0.0000
  2.480  158.7009   18.1561  158.0812   18.8785  158.1202   18.8838  158.7935   18.3021  159.2283   19.4350  159.2414   19.4271   -0.0000   -0.0000
  2.490  161.2398   18.8250  160.5980   19.5656  160.6377   19.5713  161.3393   18.9802  161.7814   20.1491  161.7956   20.1405   -0.0000   -0.0000
  2.500  163.8742   19.5320  163.2091   20.2914  163.2496   20.2977  163.9811   19.6970  164.4306   20.9038  164.4460   20.8944   -0.0000   -0.0000
  2.510  166.6096   20.2801  165.9198   21.0590  165.9610   21.0658  166.7244   20.4556  167.1813   21.7023  167.1981   21.6921   -0.0000   -0.0000
  2.520  169.4518   21.0724  168.7358   21.8717  168.7778   21.8791  169.5749   21.2593  170.0394   22.5481  170.0575   22.5371   -0.0000   -0.0000
  2.530  172.4070   21.9125  171.6631   22.7331  171.7060   22.7411  172.5389   22.1117  173.0111   23.4451  173.0307   23.4331   -0.0000   -0.0000
  2.540  175.4819   22.8045  174.7085   23.6472  174.7522   23.6559  175.6232   23.0170  176.1031   24.3973  176.1243   24.3844   -0.0000   -0.0000
  2.550  178.6838   23.7528  177.8789   24.6184  177.9235   24.6279  178.8352   23.9794  179.3227   25.4097  179.3456   25.3956   -0.0000   -0.0000
  2.560  182.0206   24.7620  181.1821   25.6517  181.2276   25.6620  182.1826   25.0042  182.6777   26.4872  182.7025   26.4721   -0.0000   -0.0000
  2.570  185.5006   25.8378  184.6263   26.7525  184.6728   26.7636  185.6740   26.0966  186.1767   27.6357  186.2035   27.6194   -0.0000   -0.0000
  2.580  189.1331   26.9859  188.2206   27.9267  188.2681   27.9388  189.3187   27.2630  189.8288   28.8615  189.8579   28.8440   -0.0000   -0.0000
  2.590  192.9281   28.2132  191.9746   29.1812  192.0233   29.1943  193.1266   28.5100  193.6440   30.1720  193.6755   30.1532   -0.0000   -0.0000
  2.600  196.8965   29.5272  195.8991   30.5235  195.9489   30.5376  197.1088   29.8454  197.6331   31.5749  197.6673   31.5547   -0.0000   -0.0000
  2.610  201.0500   30.9360  200.0055   31.9620  200.0564   31.9773  201.2771   31.2778  201.8080   33.0793  201.8450   33.0577   -0.0000   -0.0000
  2.620  205.4015   32.4493  204.3063   33.5062  204.3584   33.5227  205.6444   32.8166  206.1814   34.6952  206.2216   34.6721   -0.0000   -0.0000
  2.630  209.9650   34.0776  208.8152   35.1667  208.8685   35.1846  210.2249   34.4729  210.7674   36.4340  210.8109   36.4092   -0.0000   -0.0000
  2.640  214.7559   35.8328  213.5471   36.9555  213.6018   36.9749  215.0338   36.2589  215.5811   38.3084  215.6284   38.2820   -0.0001   -0.0000
  2.650  219.7910   37.7286  218.5184   38.8862  218.5745   38.9073  220.0883   38.1885  220.6393   40.3330  220.6907   40.3049   -0.0001   -0.0000
  2.660  225.0887   39.7803  223.7469   40.9744  223.8045   40.9972  225.4066   40.2775  225.9602   42.5244  226.0162   42.4943   -0.0003   -0.0000
  2.670  230.6693   42.0055  229.2524   43.2376  229.3114   43.2623  231.0093   42.5439  231.5639   44.9011  231.6249   44.8691   -0.0006   -0.0000
  2.680  236.5549   44.4244  235.0562   45.6959  235.1168   45.7228  236.9185   45.0084  237.4722   47.4849  237.5388   47.4508   -0.0014   -0.0000
  2.690  242.7700   47.0601  241.1821   48.3724  241.2443   48.4017  243.1588   47.6946  243.7095   50.3003  243.7822   50.2641   -0.0029   -0.0000
  2.700  249.3417   49.9392  247.6561   51.2938  247.7201   51.3256  249.7574   50.6300  250.3021   53.3759  250.3817   53.3374   -0.0059   -0.0000
  2.710  256.2997   53.0924  254.5071   54.4906  254.5728   54.5252  256.7440   53.8460  257.2792   56.7445  257.3665   56.7037   -0.0120   -0.0000
  2.720  263.6768   56.5556  261.7665   57.9985  261.8342   58.0363  264.1517   57.3796  264.6731   60.4444  264.7689   60.4012   -0.0239   -0.0000
  2.730  271.5096   60.3704  269.4695   61.8590  269.5391   61.9003  272.0168   61.2734  272.5190   64.5200  272.6243   64.4745   -0.0465   -0.0000
  2.740  279.8381   64.5857  277.6545   66.1206  277.7262   66.1659  280.3795   65.5777  280.8558   69.0237  280.9720   68.9757   -0.0886   -0.0001
  2.750  288.7068   69.2592  286.3641   70.8404  286.4379   70.8900  289.2841   70.3518  289.7265   74.0168  289.8548   73.9665   -0.1654   -0.0001
  2.760  298.1649   74.4587  295.6452   76.0857  295.7210   76.1403  298.7796   75.6655  299.1777   79.5718  299.3198   79.5192   -0.3021   -0.0002
  2.770  308.2664   80.2652  305.5491   81.9366  305.6271   81.9967  308.9198   81.6021  309.2608   85.7751  309.4185   85.7204   -0.5398   -0.0004
  2.780  319.0708   86.7755  316.1324   88.4884  316.2126   88.5546  319.7636   88.2611  320.0316   92.7295  320.2071   92.6731   -0.9435   -0.0008
  2.790  330.6432   94.1057  327.4563   95.8556  327.5387   95.9288  331.3752   95.7620  331.5500  100.5586  331.7458  100.5010   -1.6131   -0.0014
  2.800  343.0541  102.3962  339.5872  104.1761  339.6717  104.2573  343.8240  104.2495  343.8799  109.4116  344.0991  109.3536   -2.6972   -0.0024
  2.810  356.3791  111.8178  352.5956  113.6175  352.6821  113.7077  357.1835  113.8991  357.0881  119.4694  357.3343  119.4122   -4.4097   -0.0040
  2.820  370.6977  122.5795  366.5550  124.3841  366.6431  124.4846  371.5305  124.9258  371.2421  130.9531  371.5195  130.8981   -7.0479   -0.0066
  2.830  386.0907  134.9380  381.5394  136.7266  381.6288  136.8389  386.9417  137.5940  386.4068  144.1334  386.7202  144.0831  -11.0100   -0.0106
  2.840  402.6363  149.2116  397.6187  150.9545  397.7089  151.0803  403.4891  152.2307  402.6381  159.3447  402.9936  159.3022  -16.8069   -0.0168
  2.850  420.4020  165.7962  414.8517  167.4519  414.9417  167.5933  421.2316  169.2425  419.9739  177.0010  420.3784  176.9709  -25.0647   -0.0260
  2.860  439.4326  185.1870  433.2730  186.6978  433.3617  186.8571  440.2011  189.1376  438.4174  197.6172  438.8791  197.6060  -36.5098   -0.0394
  2.870  459.7293  208.0059  452.8735  209.2915  452.9590  209.4714  460.3796  212.5528  457.9127  221.8346  458.4409  221.8516  -51.9305   -0.0585
  2.880  481.2154  235.0356  473.5666  235.9842  473.6465  236.1879  481.6626  240.2871  478.3035  250.4522  478.9090  250.5103  -72.1099   -0.0850
  2.890  503.6815  267.2600  495.1365  267.7166  495.2071  267.9474  503.8000  273.3410  499.2705  284.4599  499.9649  284.5776  -97.7290   -0.1209
  2.900  526.6965  305.9080  517.1530  305.6587  517.2095  305.9202  526.3016  312.9566  520.2317  325.0703  521.0265  325.2737 -129.2430   -0.1684
  2.910  549.4676  352.4920  538.8395  351.2435  538.8752  351.5395  548.2894  360.6482  540.1900  373.7330  541.0947  374.0589 -166.7435   -0.2297
  2.920  570.6212  408.8170  558.8681  406.1735  558.8739  406.5069  568.2716  418.1971  557.5077  432.1031  558.5255  432.6021 -209.8261   -0.3068
  2.930  587.8771  476.9089  575.0560  472.3501  575.0201  472.7229  583.8119  487.5524  569.5888  501.8999  570.7089  502.6403 -257.4912   -0.4014
  2.940  597.5963  558.7595  583.9465  551.6341  583.8536  552.0454  591.0875  570.5320  572.4833  584.5511  573.6678  585.6196 -308.1129   -0.5147
  2.950  594.2468  655.7067  580.3153  645.2685  580.1471  645.7135  584.4014  668.1415  560.5106  680.4532  561.6746  681.9486 -359.5151   -0.6468
  2.960  570.0074  767.1923  556.8038  752.7307  556.5387  753.1982  555.9057  779.2808  526.2004  787.6817  527.1876  789.6917 -409.2092   -0.7972
  2.970  515.0993  888.7061  504.2143  869.8349  503.8287  870.3042  496.1485  898.7278  461.1499  900.1826  461.7185  902.7328 -454.8593   -0.9643
  2.980  419.9211 1009.2717  413.4512  986.4031  412.9223  986.8383  396.4425 1014.8984  358.5883 1006.1352  358.4377 1009.1122 -495.0701   -1.1463
  2.990  280.0029 1110.2400  280.0379 1085.0921  279.3543 1085.4354  253.7795 1109.2042  217.8385 1088.2367  216.7124 1091.3258 -530.5677   -1.3412
  3.000  102.6936 1168.7399  110.2792 1144.4038  109.4643 1144.5796   76.8487 1159.9955   48.8141 1128.0343   46.6626 1130.7571 -565.6810   -1.5491
  3.010  -89.8333 1167.5683  -75.7288 1147.5656  -76.5987 1147.5128 -112.0123 1152.1089 -127.6880 1114.0649 -130.6078 1115.9646 -609.5313   -1.7731
  3.020 -267.5583 1105.9843 -249.9735 1092.5686 -250.7914 1092.2861 -284.1268 1086.3871 -286.8847 1048.7340 -290.0991 1049.5936 -675.5236   -2.0214
  3.030 -406.7213 1000.9144 -389.2148  994.0076 -389.9015  993.5609 -417.6241  979.8991 -410.4692  947.5362 -413.5150  947.4425 -777.1961   -2.3070
  3.040 -498.9975  876.8516 -483.9876  874.5174 -484.5293  873.9928 -505.3840  856.1013 -492.5342  830.9335 -495.1278  830.1578 -919.6033   -2.6449
  3.050 -549.8318  754.4700 -537.9470  754.2111 -538.3834  753.6632 -552.9416  734.3784 -537.8057  716.0071 -539.8631  714.8435 *********   -3.0452
  3.060 -571.5582  645.5196 -561.8678  645.4078 -562.2521  644.8323 -571.8189  625.6806 -556.3314  612.8095 -557.8992  611.4776 *********   -3.5041
  3.070 -577.3503  552.3141 -568.0591  551.8899 -568.3990  551.2244 -573.9778  532.6539 -558.9579  524.2014 -560.1267  522.8169 *********   -3.9992
  3.080 -574.9021  469.4496 -564.9924  470.0857 -565.1879  469.2907 -566.9999  451.6224 -553.1036  447.0501 -553.9240  445.6608 *********   -4.4919
  3.090 -562.5961  393.0510 -553.2122  395.9780 -553.1617  395.1676 -551.4782  379.4087 -539.6355  377.9101 -540.1306  376.5934 *********   -4.9386
  3.100 -539.7623  327.0593 -532.2881  331.6190 -532.0516  330.9332 -528.0240  317.9161 -518.5764  318.1909 -518.8286  317.0222 -997.2903   -5.3051
  3.110 -511.5532  273.8909 -506.1584  278.9271 -505.8446  278.3905 -500.7199  268.0698 -493.3308  269.1425 -493.4322  268.1317 -739.2594   -5.5768
  3.120 -482.4280  231.7463 -478.6962  236.5801 -478.3671  236.1613 -472.9193  228.0751 -467.1249  229.4502 -467.1336  228.5764 -496.0632   -5.7591
  3.130 -454.3933  197.9881 -451.8686  202.3476 -451.5487  202.0120 -446.1687  195.6816 -441.5947  197.1280 -441.5434  196.3687 -303.4067   -5.8706
  3.140 -428.1273  170.5224 -426.4555  174.3381 -426.1522  174.0603 -421.0237  169.0980 -417.3947  170.5052 -417.3030  169.8420 -171.5895   -5.9336
  3.150 -403.7768  147.8527 -402.7050  151.1406 -402.4188  150.9032 -397.6226  147.0124 -394.7363  148.3264 -394.6170  147.7447  -92.3452   -5.9676
  3.160 -381.2877  128.9078 -380.6391  131.7161 -380.3681  131.5071 -375.9336  128.4627 -373.6382  129.6579 -373.5000  129.1464  -50.2299   -5.9860
  3.170 -360.5318  112.9036 -360.1829  115.2891 -359.9242  115.1001 -355.8546  112.7298 -354.0342  113.7961 -353.8834  113.3454  -31.1609   -5.9975
  3.180 -341.3569   99.2520 -341.2208  101.2701 -340.9715  101.0952 -337.2569   99.2656 -335.8214  100.2013 -335.6626   99.8038  -25.8599   -6.0070
  3.190 -323.6081   87.5027 -323.6232   89.2042 -323.3802   89.0389 -320.0044   87.6455 -318.8829   88.4536 -318.7196   88.1032  -29.7041   -6.0179
  3.200 -307.1360   77.3052 -307.2584   78.7352 -307.0188   78.5760 -303.9632   77.5359 -303.0987   78.2221 -302.9336   77.9137  -41.2390   -6.0330
  3.210 -291.8001   68.3826 -291.9985   69.5802 -291.7593   69.4245 -289.0049   68.6714 -288.3513   69.2423 -288.1865   68.9717  -60.7059   -6.0553
  3.220 -277.4694   60.5133 -277.7214   61.5127 -277.4795   61.3582 -275.0080   60.8382 -274.5273   61.3013 -274.3648   61.0650  -88.9606   -6.0880
  3.230 -264.0211   53.5175 -264.3113   54.3485 -264.0634   54.1933 -261.8579   53.8623 -261.5180   54.2253 -261.3598   54.0203 -126.7059   -6.1346
  3.240 -251.3390   47.2478 -251.6569   47.9366 -251.3991   47.7791 -249.4447   47.6005 -249.2180   47.8713 -249.0660   47.6951 -173.9271   -6.1985
  3.250 -239.3096   41.5818 -239.6490   42.1519 -239.3770   41.9906 -237.6608   41.9340 -237.5227   42.1209 -237.3795   41.9707 -229.5335   -6.2829
  3.260 -227.8180   36.4172 -228.1766   36.8900 -227.8847   36.7236 -226.3968   36.7632 -226.3249   36.8760 -226.1931   36.7487 -291.3073   -6.3899
  3.270 -216.7406   31.6704 -217.1201   32.0658 -216.8011   31.8935 -215.5356   32.0066 -215.5089   32.0572 -215.3915   31.9486 -356.2721   -6.5209
  3.280 -205.9365   27.2798 -206.3435   27.6165 -205.9875   27.4384 -204.9437   27.6034 -204.9436   27.6073 -204.8424   27.5116 -421.4970   -6.6758
  3.290 -195.2390   23.2193 -195.6869   23.5145 -195.2805   23.3331 -194.4644   23.5240 -194.4753   23.5017 -194.3900   23.4116 -485.1729   -6.8541
  3.300 -184.4590   19.5204 -184.9702   19.7880 -184.4955   19.6108 -183.9166   19.7898 -183.9284   19.7663 -183.8545   19.6749 -547.5893   -7.0553
  3.310 -173.4024   16.2894 -174.0106   16.5365 -173.4464   16.3794 -173.1074   16.4904 -173.1151   16.4946 -173.0452   16.3994 -611.5201   -7.2800
  3.320 -161.8811   13.7097 -162.6343   13.9304 -161.9577   13.8220 -161.8382   13.7935 -161.8401   13.8613 -161.7689   13.7658 -681.6011   -7.5305
  3.330 -149.6966   12.0697 -150.6596   12.2344 -149.8494   12.2215 -149.8927   11.9801 -149.8946   12.1663 -149.8239   12.0751 -762.6232   -7.8108
  3.340 -136.6520   11.8743 -137.9060   11.9057 -136.9506   12.0639 -137.0557   11.5549 -137.0935   11.9484 -137.0317   11.8590 -857.1870   -8.1258
  3.350 -122.7175   14.0161 -124.3347   13.7483 -123.2584   14.1943 -123.2782   13.4171 -123.4745   14.1381 -123.4275   14.0330 -963.6448   -8.4799
  3.360 -108.4875   19.8574 -110.4424   18.9977 -109.3634   19.8803 -109.1374   18.9463 -109.7905   20.0694 -109.7415   19.9177 *********   -8.8751
  3.370  -95.9646   30.7704  -97.9604   28.9668  -97.1625   30.3733  -96.6359   29.5399  -98.2306   30.8475  -98.1201   30.6367 *********   -9.3095
  3.380  -88.8841   46.4381  -90.2626   43.6033  -90.1350   45.3470  -89.5231   44.8824  -92.3369   45.5843  -92.0978   45.3759 *********   -9.7771
  3.390  -90.5037   62.8145  -90.6304   59.4912  -91.3086   61.0433  -91.0275   60.9142  -94.4314   60.0803  -94.0840   59.9826 *********  -10.2690
  3.400  -99.4799   73.9150  -98.3820   70.9856  -99.5029   71.9069  -99.7608   71.7172 -102.5404   69.3601 -102.1791   69.4138 *********  -10.7748
  3.410 -110.3628   77.3008 -108.6543   75.2364 -109.7360   75.5513 -110.3401   74.9416 -111.8950   71.9240 -111.5903   72.0998 *********  -11.2852
  3.420 -118.8555   75.1277 -117.1046   73.8373 -117.9325   73.8124 -118.5781   72.7209 -119.0829   69.7787 -118.8667   70.0348 *********  -11.7930
  3.430 -123.8869   70.5681 -122.3427   69.7622 -122.9249   69.6134 -123.4404   68.1403 -123.2799   65.5656 -123.1657   65.8639 *********  -12.2933
  3.440 -126.1476   65.6866 -124.8413   65.1263 -125.2527   64.9579 -125.5872   63.1894 -125.0503   61.0151 -125.0410   61.3198 *********  -12.7869
  3.450 -126.7415   61.4137 -125.6212   60.9527 -125.9259   60.8008 -126.0503   58.7582 -125.2994   56.9363 -125.3879   57.2123 *********  -13.3838
  3.460 -126.6948   57.8992 -125.6632   57.4357 -125.9232   57.3338 -125.7511   55.0115 -124.8650   53.4908 -125.0342   53.7082 *********  -14.3517
  3.470 -126.6898   54.7341 -125.6141   54.3649 -125.9000   54.2027 -125.2945   51.6802 -124.3112   50.4542 -124.5274   50.5779 *********  -15.1078
  3.480 -126.7826   51.2483 -125.7365   51.0169 -125.9456   50.7962 -124.8201   48.2312 -123.8104   47.3010 -124.0196   47.3361 *********  -15.5345
  3.490 -126.4485   47.1721 -125.4668   47.0822 -125.5907   46.8486 -123.9577   44.4485 -122.9971   43.7892 -123.1682   43.7640 -964.8792  -15.8891
  3.500 -125.2451   42.8298 -124.3722   42.8601 -124.4243   42.6450 -122.4085   40.5660 -121.5567   40.1211 -121.6825   40.0683 -837.6587  -16.1970
  3.510 -123.1749   38.7124 -122.4328   38.8183 -122.4362   38.6367 -120.1976   36.9358 -119.4780   36.6375 -119.5673   36.5793 -704.5475  -16.4559
  3.520 -120.5145   35.1011 -119.8991   35.2405 -119.8742   35.0937 -117.5451   33.7530 -116.9527   33.5460 -117.0174   33.4920 -573.1979  -16.6665
  3.530 -117.5499   32.0477 -117.0448   32.1922 -117.0051   32.0752 -114.6721   31.0438 -114.1898   30.8913 -114.2392   30.8441 -451.8617  -16.8326
  3.540 -114.4771   29.4914 -114.0630   29.6246 -114.0163   29.5314 -111.7288   28.7530 -111.3376   28.6328 -111.3775   28.5921 -346.6604  -16.9600
  3.550 -111.4071   27.3426 -111.0670   27.4568 -111.0173   27.3817 -108.7998   26.8064 -108.4831   26.7059 -108.5170   26.6707 -260.8821  -17.0558
  3.560 -108.3961   25.5189 -108.1161   25.6110 -108.0656   25.5499 -105.9284   25.1369 -105.6725   25.0489 -105.7025   25.0181 -195.0472  -17.1275
  3.570 -105.4696   23.9542 -105.2388   24.0237 -105.1884   23.9733 -103.1339   23.6904 -102.9281   23.6112 -102.9555   23.5839 -147.5220  -17.1817
  3.580 -102.6366   22.5977 -102.4467   22.6455 -102.3969   22.6034 -100.4234   22.4256 -100.2592   22.3531 -100.2847   22.3288 -115.3758  -17.2241
  3.590  -99.8983   21.4112  -99.7429   21.4390  -99.6938   21.4032  -97.7975   21.3110  -97.6682   21.2443  -97.6924   21.2223  -95.2063  -17.2591
  3.600  -97.2518   20.3659  -97.1259   20.3755  -97.0776   20.3447  -95.2538   20.3226  -95.1540   20.2615  -95.1772   20.2415  -83.7629  -17.2899
  3.610  -94.6925   19.4399  -94.5924   19.4330  -94.5447   19.4062  -92.7887   19.4420  -92.7140   19.3866  -92.7364   19.3684  -78.3087  -17.3187
  3.620  -92.2152   18.6161  -92.1379   18.5948  -92.0909   18.5710  -90.3977   18.6549  -90.3446   18.6056  -90.3665   18.5890  -76.7498  -17.3469
  3.630  -89.8147   17.8816  -89.7580   17.8475  -89.7114   17.8261  -88.0767   17.9500  -88.0422   17.9075  -88.0636   17.8923  -77.6056  -17.3754
  3.640  -87.4859   17.2259  -87.4482   17.1808  -87.4019   17.1612  -85.8215   17.3184  -85.8030   17.2836  -85.8242   17.2697  -79.8965  -17.4048
  3.650  -85.2241   16.6409  -85.2043   16.5862  -85.1581   16.5680  -83.6281   16.7530  -83.6235   16.7268  -83.6445   16.7140  -83.0095  -17.4353
  3.660  -83.0253   16.1200  -83.0224   16.0572  -82.9762   16.0400  -81.4930   16.2482  -81.5006   16.2314  -81.5215   16.2196  -86.5780  -17.4671
  3.670  -80.8854   15.6580  -80.8990   15.5883  -80.8526   15.5718  -79.4130   15.7991  -79.4313   15.7929  -79.4522   15.7821  -90.3888  -17.5003
  3.680  -78.8012   15.2507  -78.8309   15.1753  -78.7842   15.1592  -77.3852   15.4021  -77.4130   15.4075  -77.4339   15.3977  -94.3198  -17.5350
  3.690  -76.7696   14.8946  -76.8155   14.8147  -76.7683   14.7988  -75.4072   15.0541  -75.4433   15.0724  -75.4643   15.0635  -98.2990  -17.5711
  3.700  -74.7880   14.5869  -74.8502   14.5034  -74.8024   14.4875  -73.4766   14.7525  -73.5202   14.7850  -73.5414   14.7768 -102.2820  -17.6087
  3.710  -72.8543   14.3254  -72.9332   14.2393  -72.8846   14.2232  -71.5918   14.4953  -71.6422   14.5433  -71.6635   14.5359 -106.2390  -17.6477
  3.720  -70.9667   14.1083  -71.0627   14.0203  -71.0133   14.0039  -69.7513   14.2807  -69.8078   14.3457  -69.8294   14.3389 -110.1476  -17.6882
  3.730  -69.1236   13.9339  -69.2375   13.8448  -69.1871   13.8279  -67.9538   14.1072  -68.0161   14.1906  -68.0380   14.1844 -113.9896  -17.7301
  3.740  -67.3240   13.8008  -67.4567   13.7113  -67.4051   13.6937  -66.1985   13.9735  -66.2664   14.0768  -66.2886   14.0712 -117.7496  -17.7734
  3.750  -65.5673   13.7078  -65.7197   13.6184  -65.6667   13.6002  -64.4851   13.8781  -64.5583   14.0032  -64.5808   13.9981 -121.4142  -17.8180
  3.760  -63.8528   13.6538  -64.0262   13.5649  -63.9717   13.5458  -62.8131   13.8200  -62.8918   13.9685  -62.9146   13.9638 -124.9716  -17.8639
  3.770  -62.1806   13.6373  -62.3763   13.5493  -62.3200   13.5293  -61.1827   13.7977  -61.2669   13.9714  -61.2901   13.9671 -128.4121  -17.9111
  3.780  -60.5506   13.6571  -60.7701   13.5701  -60.7119   13.5491  -59.5940   13.8097  -59.6841   14.0105  -59.7076   14.0066 -131.7279  -17.9595
  3.790  -58.9633   13.7115  -59.2082   13.6257  -59.1478   13.6036  -58.0475   13.8542  -58.1440   14.0842  -58.1678   14.0805 -134.9137  -18.0091
  3.800  -57.4189   13.7987  -57.6911   13.7140  -57.6282   13.6908  -56.5436   13.9294  -56.6470   14.1905  -56.6712   14.1870 -137.9670  -18.0598
  3.810  -55.9179   13.9165  -56.2193   13.8327  -56.1538   13.8084  -55.0827   14.0328  -55.1939   14.3272  -55.2184   14.3239 -140.8888  -18.1116
  3.820  -54.4606   14.0626  -54.7934   13.9792  -54.7248   13.9537  -53.6653   14.1617  -53.7851   14.4917  -53.8099   14.4885 -143.6838  -18.1644
  3.830  -53.0472   14.2339  -53.4135   14.1505  -53.3417   14.1239  -52.2913   14.3133  -52.4210   14.6810  -52.4459   14.6779 -146.3613  -18.2182
  3.840  -51.6774   14.4275  -52.0797   14.3432  -52.0044   14.3155  -50.9606   14.4841  -51.1013   14.8920  -51.1264   14.8889 -148.9361  -18.2729
  3.850  -50.3507   14.6400  -50.7915   14.5538  -50.7123   14.5250  -49.6725   14.6705  -49.8255   15.1210  -49.8508   15.1179 -151.4293  -18.3285
  3.860  -49.0659   14.8678  -49.5479   14.7784  -49.4644   14.7487  -48.4256   14.8690  -48.5926   15.3646  -48.6180   15.3615 -153.8697  -18.3851
  3.870  -47.8211   15.1074  -48.3473   15.0133  -48.2591   14.9828  -47.2181   15.0756  -47.4008   15.6190  -47.4262   15.6158 -156.2948  -18.4425
  3.880  -46.6140   15.3553  -47.1873   15.2547  -47.0940   15.2235  -46.0475   15.2867  -46.2476   15.8807  -46.2730   15.8775 -158.7530  -18.5009
  3.890  -45.4414   15.6084  -46.0649   15.4990  -45.9663   15.4674  -44.9103   15.4990  -45.1300   16.1465  -45.1554   16.1433 -161.3049  -18.5601
  3.900  -44.2996   15.8640  -44.9765   15.7433  -44.8722   15.7115  -43.8027   15.7095  -44.0442   16.4137  -44.0695   16.4104 -164.0257  -18.6204
  3.910  -43.1842   16.1198  -43.9179   15.9848  -43.8075   15.9532  -42.7203   15.9157  -42.9860   16.6800  -43.0111   16.6766 -167.0073  -18.6818
  3.920  -42.0904   16.3744  -42.8845   16.2217  -42.7676   16.1906  -41.6579   16.1160  -41.9505   16.9440  -41.9755   16.9406 -170.3608  -18.7444
  3.930  -41.0131   16.6273  -41.8712   16.4529  -41.7474   16.4226  -40.6104   16.3093  -40.9328   17.2051  -40.9575   17.2016 -174.2187  -18.8084
  3.940  -39.9470   16.8785  -40.8727   16.6778  -40.7418   16.6489  -39.5721   16.4954  -39.9277   17.4634  -39.9521   17.4599 -178.7371  -18.8741
  3.950  -38.8868   17.1293  -39.8839   16.8970  -39.7456   16.8698  -38.5375   16.6750  -38.9299   17.7200  -38.9540   17.7165 -184.0979  -18.9418
  3.960  -37.8271   17.3816  -38.8993   17.1116  -38.7533   17.0866  -37.5010   16.8495  -37.9344   17.9768  -37.9582   17.9733 -190.5101  -19.0118
  3.970  -36.7631   17.6383  -37.9141   17.3235  -37.7601   17.3012  -36.4571   17.0211  -36.9364   18.2364  -36.9599   18.2330 -198.2103  -19.0846
  3.980  -35.6901   17.9030  -36.9233   17.5352  -36.7610   17.5160  -35.4005   17.1924  -35.9315   18.5024  -35.9547   18.4989 -207.4627  -19.1609
  3.990  -34.6040   18.1800  -35.9223   17.7497  -35.7515   17.7343  -34.3264   17.3671  -34.9156   18.7787  -34.9384   18.7752 -218.5567  -19.2412
  4.000  -33.5011   18.4743  -34.9067   17.9707  -34.7272   17.9595  -33.2299   17.5491  -33.8850   19.0699  -33.9075   19.0663 -231.8032  -19.3264
  4.010  -32.3785   18.7915  -33.8724   18.2022  -33.6838   18.1958  -32.1066   17.7428  -32.8369   19.3812  -32.8590   19.3775 -247.5276  -19.4173
  4.020  -31.2337   19.1375  -32.8155   18.4487  -32.6175   18.4477  -30.9521   17.9533  -31.7684   19.7181  -31.7901   19.7142 -266.0605  -19.5151
  4.030  -30.0652   19.5186  -31.7319   18.7150  -31.5241   18.7200  -29.7622   18.1861  -30.6775   20.0866  -30.6988   20.0822 -287.7238  -19.6208
  4.040  -28.8720   19.9413  -30.6176   19.0067  -30.3997   19.0182  -28.5328   18.4470  -29.5626   20.4927  -29.5834   20.4878 -312.8135  -19.7358
  4.050  -27.6541   20.4122  -29.4687   19.3296  -29.2401   19.3485  -27.2599   18.7428  -28.4224   20.9430  -28.4426   20.9373 -341.5787  -19.8613
  4.060  -26.4120   20.9371  -28.2805   19.6908  -28.0407   19.7178  -25.9393   19.0806  -27.2559   21.4439  -27.2754   21.4369 -374.1968  -19.9988
  4.070  -25.1465   21.5212  -27.0485   20.0981  -26.7968   20.1341  -24.5667   19.4685  -26.0623   22.0017  -26.0808   21.9931 -410.7470  -20.1498
  4.080  -23.8579   22.1685  -25.7674   20.5611  -25.5028   20.6071  -23.1375   19.9158  -24.8402   22.6227  -24.8573   22.6120 -451.1818  -20.3156
  4.090  -22.5450   22.8816  -24.4316   21.0913  -24.1532   21.1486  -21.6472   20.4328  -23.5870   23.3133  -23.6018   23.2998 -495.3008  -20.4976
  4.100  -21.2029   23.6619  -23.0356   21.7030  -22.7421   21.7732  -20.0905   21.0316  -22.2976   24.0804  -22.3089   24.0634 -542.7270  -20.6971
  4.110  -19.8208   24.5122  -21.5737   22.4138  -21.2636   22.4989  -18.4624   21.7264  -20.9634   24.9336  -20.9694   24.9127 -592.8899  -20.9149
  4.120  -18.3807   25.4402  -20.0416   23.2460  -19.7133   23.3486  -16.7572   22.5338  -19.5715   25.8881  -19.5698   25.8633 -645.0189  -21.1520
  4.130  -16.8583   26.4643  -18.4369   24.2270  -18.0885   24.3505  -14.9694   23.4738  -18.1065   26.9690  -18.0942   26.9412 -698.1499  -21.4086
  4.140  -15.2274   27.6191  -16.7612   25.3901  -16.3907   25.5390  -13.0935   24.5707  -16.5547   28.2156  -16.5287   28.1869 -751.1516  -21.6846
  4.150  -13.4682   28.9578  -15.0220   26.7753  -14.6279   26.9555  -11.1248   25.8538  -14.9111   29.6827  -14.8685   29.6568 -802.7723  -21.9796
  4.160  -11.5748   30.5503  -13.2361   28.4288  -12.8172   28.6480   -9.0600   27.3591  -13.1870   31.4392  -13.1259   31.4209 -851.7114  -22.2926
  4.170   -9.5611   32.4781  -11.4323   30.4023  -10.9887   30.6699   -6.8981   29.1310  -11.4161   33.5624  -11.3360   33.5578 -896.7125  -22.6221
  4.180   -7.4625   34.8296   -9.6557   32.7504   -9.1895   33.0782   -4.6429   31.2243   -9.6584   36.1329   -9.5608   36.1488 -936.6713  -22.9664
  4.190   -5.3375   37.6989   -7.9712   35.5274   -7.4874   35.9291   -2.3051   33.7068   -8.0031   39.2289   -7.8917   39.2719 -970.7476  -23.3231
  4.200   -3.2721   41.1852   -6.4666   38.7810   -5.9746   39.2719    0.0924   36.6625   -6.5729   42.9199   -6.4536   42.9962 -998.4616  -23.6900
  4.210   -1.3894   45.3921   -5.2545   42.5456   -4.7692   43.1418    2.5078   40.1945   -5.5295   47.2586   -5.4105   47.3728 *********  -24.0648
  4.220    0.1345   50.4213   -4.4718   46.8327   -4.0153   47.5497    4.8693   44.4284   -5.0796   52.2661   -4.9712   52.4209 *********  -24.4452
  4.230    1.0521   56.3541   -4.2766   51.6214   -3.8794   52.4714    7.0576   49.5120   -5.4789   57.9096   -5.3928   58.1046 *********  -24.8292
  4.240    1.0261   63.2162   -4.8412   56.8483   -4.5435   57.8368    8.8818   55.6102   -7.0264   64.0681   -6.9752   64.2989 *********  -25.2153
  4.250   -0.3724   70.9179   -6.3418   62.3996   -6.1928   63.5199   10.0444   62.8870  -10.0390   70.4879  -10.0347   70.7455 *********  -25.6024
  4.260   -3.6287   79.1747   -8.9470   68.1058   -9.0019   69.3329   10.0997   71.4611  -14.7896   76.7394  -14.8415   77.0096 *********  -25.9898
  4.270   -9.1858   87.4344  -12.8072   73.7375  -13.1198   75.0211    8.4175   81.3173  -21.3978   82.2040  -21.5094   82.4685 *********  -26.3769
  4.280  -17.2766   94.8664  -18.0447   78.9928  -18.6549   80.2542    4.1904   92.1549  -29.6904   86.1424  -29.8575   86.3815 *********  -26.7633
  4.290  -27.7440  100.4736  -24.7263   83.4712  -25.6428   84.6066   -3.4401  103.1838  -39.1056   87.8802  -39.3155   88.0774 *********  -27.1487
  4.300  -39.9500  103.3232  -32.7886   86.6495  -33.9714   87.5458  -15.0448  112.9695  -48.7522   87.0633  -48.9866   87.2090 *********  -27.5323
  4.310  -52.8384  102.8029  -41.9044   87.9282  -43.2583   88.4925  -30.3693  119.5681  -57.6591   83.8256  -57.8982   83.9195 *********  -27.9130
  4.320  -65.1252   98.8158  -51.3790   86.8263  -52.7693   87.0195  -47.9167  121.1773  -65.0834   78.7341  -65.3112   78.7835 *********  -28.2890
  4.330  -75.5863   91.8701  -60.2478   83.2700  -61.5391   83.1228  -65.1970  117.0921  -70.6820   72.5481  -70.8882   72.5647 *********  -28.6581
  4.340  -83.3964   82.9779  -67.6183   77.7281  -68.7147   77.3260  -79.7489  108.1875  -74.4798   65.9705  -74.6606   65.9668 -977.5883  -29.0173
  4.350  -88.3390   73.3285  -73.0091   71.0253  -73.8717   70.4729  -90.1696   96.4195  -76.7251   59.5134  -76.8816   59.4999 -942.2359  -29.3636
  4.360  -90.7334   63.9169  -76.4212   63.9928  -77.0585   63.3812  -96.3574   83.8300  -77.7457   53.4822  -77.8815   53.4663 -897.6963  -29.6935
  4.370  -91.1698   55.3569  -78.1685   57.2298  -78.6151   56.6225  -99.0510   71.8687  -77.8576   48.0207  -77.9773   48.0068 -844.1887  -30.0037
  4.380  -90.2613   47.9051  -78.6653   51.0605  -78.9629   50.4938  -99.2442   61.2740  -77.3255   43.1676  -77.4333   43.1580 -782.6415  -30.2913
  4.390  -88.5125   41.5817  -78.2918   45.6024  -78.4795   45.0930  -97.8283   52.2627  -76.3548   38.9022  -76.4540   38.8977 -714.6278  -30.5539
  4.400  -86.2890   36.2862  -77.3463   40.8523  -77.4555   40.4043  -95.4712   44.7648  -75.0973   35.1752  -75.1907   35.1758 -642.2192  -30.7900
  4.410  -83.8355   31.8748  -76.0434   36.7500  -76.0984   36.3609  -92.6255   38.5899  -73.6624   31.9266  -73.7519   31.9320 -567.7826  -30.9986
  4.420  -81.3069   28.2009  -74.5309   33.2154  -74.5491   32.8795  -89.5781   33.5198  -72.1272   29.0956  -72.2142   29.1052 -493.7494  -31.1801
  4.430  -78.7972   25.1325  -72.9076   30.1676  -72.9014   29.8783  -86.5027   29.3510  -70.5452   26.6255  -70.6306   26.6389 -422.3903  -31.3353
  4.440  -76.3602   22.5582  -71.2383   27.5327  -71.2164   27.2833  -83.4987   25.9095  -68.9527   24.4657  -69.0373   24.4824 -355.6277  -31.4660
  4.450  -74.0246   20.3866  -69.5650   25.2468  -69.5334   25.0311  -80.6195   23.0527  -67.3744   22.5719  -67.4587   22.5915 -294.9063  -31.5744
  4.460  -71.8035   18.5438  -67.9143   23.2554  -67.8770   23.0681  -77.8903   20.6663  -65.8262   20.9062  -65.9105   20.9285 -241.1342  -31.6630
  4.470  -69.7007   16.9704  -66.3026   21.5132  -66.2623   21.3497  -75.3197   18.6597  -64.3182   19.4363  -64.4028   19.4609 -194.6911  -31.7345
  4.480  -67.7145   15.6190  -64.7395   19.9825  -64.6979   19.8389  -72.9065   16.9612  -62.8563   18.1347  -62.9414   18.1615 -155.4929  -31.7917
  4.490  -65.8400   14.4516  -63.2300   18.6319  -63.1883   18.5049  -70.6442   15.5143  -61.4437   16.9784  -61.5295   17.0072 -123.0934  -31.8369
  4.500  -64.0707   13.4374  -61.7763   17.4354  -61.7352   17.3222  -68.5238   14.2739  -60.0814   15.9476  -60.1680   15.9782  -96.8012  -31.8725
  4.510  -62.3995   12.5518  -60.3786   16.3713  -60.3385   16.2695  -66.5349   13.2043  -58.7693   15.0258  -58.8568   15.0582  -75.7941  -31.9003
  4.520  -60.8193   11.7745  -59.0360   15.4213  -58.9969   15.3292  -64.6671   12.2767  -57.5063   14.1988  -57.5948   14.2329  -59.2170  -31.9221
  4.530  -59.3229   11.0893  -57.7465   14.5703  -57.7085   14.4862  -62.9104   11.4681  -56.2907   13.4547  -56.3804   13.4904  -46.2546  -31.9391
  4.540  -57.9037   10.4826  -56.5080   13.8055  -56.4710   13.7281  -61.2550   10.7597  -55.1208   12.7832  -55.2116   12.8206  -36.1779  -31.9524
  4.550  -56.5555    9.9432  -55.3179   13.1159  -55.2819   13.0441  -59.6922   10.1362  -53.9941   12.1757  -54.0864   12.2147  -28.3674  -31.9628
  4.560  -55.2725    9.4619  -54.1738   12.4925  -54.1385   12.4253  -58.2139    9.5852  -52.9087   11.6247  -53.0023   11.6652  -22.3171  -31.9710
  4.570  -54.0494    9.0311  -53.0729   11.9273  -53.0382   11.8640  -56.8127    9.0963  -51.8622   11.1237  -51.9573   11.1658  -17.6270  -31.9775
  4.580  -52.8814    8.6442  -52.0128   11.4137  -51.9784   11.3535  -55.4820    8.6611  -50.8523   10.6672  -50.9490   10.7109  -13.9883  -31.9826
  4.590  -51.7640    8.2958  -50.9910   10.9458  -50.9567   10.8882  -54.2156    8.2722  -49.8771   10.2503  -49.9754   10.2957  -11.1665  -31.9867
  4.600  -50.6934    7.9813  -50.0051   10.5188  -49.9707   10.4632  -53.0081    7.9239  -48.9343    9.8691  -49.0345    9.9160   -8.9850  -31.9900
  4.610  -49.6659    7.6968  -49.0528   10.1282  -49.0182   10.0744  -51.8548    7.6109  -48.0222    9.5197  -48.1242    9.5683   -7.3117  -31.9927
  4.620  -48.6782    7.4389  -48.1322    9.7705  -48.0971    9.7179  -50.7510    7.3292  -47.1387    9.1991  -47.2427    9.2495   -6.0470  -31.9949
  4.630  -47.7272    7.2047  -47.2412    9.4422  -47.2054    9.3907  -49.6929    7.0751  -46.2823    8.9046  -46.3883    8.9566   -5.1160  -31.9968
  4.640  -46.8103    6.9919  -46.3780    9.1407  -46.3413    9.0899  -48.6768    6.8455  -45.4512    8.6337  -45.5594    8.6875   -4.4621  -31.9985
  4.650  -45.9250    6.7982  -45.5408    8.8634  -45.5030    8.8131  -47.6995    6.6377  -44.6439    8.3843  -44.7544    8.4398   -4.0429  -31.9999
  4.660  -45.0689    6.6219  -44.7281    8.6081  -44.6891    8.5581  -46.7580    6.4495  -43.8589    8.1545  -43.9719    8.2119   -3.8270  -32.0013
  4.670  -44.2401    6.4613  -43.9383    8.3730  -43.8978    8.3231  -45.8496    6.2790  -43.0950    7.9427  -43.2105    8.0020   -3.7918  -32.0027
  4.680  -43.4365    6.3150  -43.1700    8.1564  -43.1279    8.1064  -44.9719    6.1245  -42.3508    7.7474  -42.4689    7.8086   -3.9225  -32.0042
  4.690  -42.6566    6.1819  -42.4219    7.9568  -42.3781    7.9066  -44.1225    5.9845  -41.6251    7.5674  -41.7460    7.6306   -4.2102  -32.0057
  4.700  -41.8985    6.0609  -41.6928    7.7728  -41.6470    7.7223  -43.2996    5.8577  -40.9169    7.4015  -41.0408    7.4668   -4.6518  -32.0074
  4.710  -41.1610    5.9510  -40.9815    7.6033  -40.9336    7.5524  -42.5012    5.7431  -40.2250    7.2488  -40.3520    7.3161   -5.2490  -32.0094
  4.720  -40.4426    5.8515  -40.2869    7.4473  -40.2368    7.3958  -41.7256    5.6396  -39.5486    7.1082  -39.6788    7.1777   -6.0077  -32.0116
  4.730  -39.7420    5.7617  -39.6081    7.3039  -39.5556    7.2518  -40.9712    5.5466  -38.8866    6.9791  -39.0202    7.0508   -6.9376  -32.0141
  4.740  -39.0580    5.6809  -38.9441    7.1722  -38.8890    7.1194  -40.2365    5.4632  -38.2382    6.8607  -38.3754    6.9347   -8.0521  -32.0171
  4.750  -38.3897    5.6087  -38.2940    7.0516  -38.2361    6.9980  -39.5203    5.3888  -37.6026    6.7525  -37.7435    6.8287   -9.3678  -32.0205
  4.760  -37.7360    5.5444  -37.6570    6.9414  -37.5961    6.8869  -38.8213    5.3228  -36.9790    6.6538  -37.1239    6.7324  -10.9042  -32.0245
  4.770  -37.0959    5.4879  -37.0322    6.8411  -36.9682    6.7856  -38.1383    5.2648  -36.3667    6.5641  -36.5157    6.6453  -12.6838  -32.0292
  4.780  -36.4685    5.4386  -36.4190    6.7501  -36.3517    6.6937  -37.4703    5.2145  -35.7649    6.4832  -35.9183    6.5668  -14.7316  -32.0346
  4.790  -35.8531    5.3963  -35.8167    6.6681  -35.7459    6.6106  -36.8162    5.1713  -35.1731    6.4105  -35.3310    6.4968  -17.0752  -32.0409
  4.800  -35.2489    5.3607  -35.2245    6.5946  -35.1500    6.5360  -36.1752    5.1351  -34.5906    6.3457  -34.7533    6.4348  -19.7442  -32.0481
  4.810  -34.6551    5.3317  -34.6419    6.5294  -34.5635    6.4696  -35.5463    5.1055  -34.0168    6.2887  -34.1845    6.3806  -22.7707  -32.0565
  4.820  -34.0711    5.3090  -34.0683    6.4721  -33.9858    6.4111  -34.9287    5.0825  -33.4511    6.2391  -33.6241    6.3339  -26.1884  -32.0661
  4.830  -33.4962    5.2926  -33.5030    6.4226  -33.4162    6.3602  -34.3217    5.0657  -32.8930    6.1968  -33.0717    6.2946  -30.0327  -32.0772
  4.840  -32.9299    5.2823  -32.9457    6.3806  -32.8543    6.3169  -33.7246    5.0551  -32.3420    6.1615  -32.5265    6.2624  -34.3405  -32.0898
  4.850  -32.3715    5.2780  -32.3957    6.3459  -32.2995    6.2808  -33.1366    5.0506  -31.7976    6.1333  -31.9883    6.2374  -39.1496  -32.1042
  4.860  -31.8205    5.2797  -31.8525    6.3185  -31.7514    6.2520  -32.5571    5.0521  -31.2592    6.1119  -31.4566    6.2194  -44.4987  -32.1205
  4.870  -31.2764    5.2875  -31.3158    6.2983  -31.2094    6.2303  -31.9855    5.0596  -30.7266    6.0973  -30.9309    6.2083  -50.4266  -32.1391
  4.880  -30.7387    5.3012  -30.7851    6.2851  -30.6731    6.2156  -31.4212    5.0731  -30.1991    6.0896  -30.4108    6.2041  -56.9723  -32.1600
  4.890  -30.2070    5.3210  -30.2600    6.2791  -30.1420    6.2080  -30.8636    5.0925  -29.6765    6.0886  -29.8959    6.2068  -64.1739  -32.1836
  4.900  -29.6808    5.3469  -29.7400    6.2801  -29.6158    6.2074  -30.3123    5.1181  -29.1582    6.0944  -29.3858    6.2165  -72.0688  -32.2101
  4.910  -29.1597    5.3790  -29.2248    6.2883  -29.0940    6.2138  -29.7668    5.1498  -28.6440    6.1071  -28.8803    6.2332  -80.6927  -32.2397
  4.920  -28.6433    5.4174  -28.7140    6.3036  -28.5763    6.2274  -29.2265    5.1877  -28.1334    6.1268  -28.3789    6.2571  -90.0794  -32.2728
  4.930  -28.1313    5.4623  -28.2073    6.3262  -28.0623    6.2483  -28.6910    5.2320  -27.6260    6.1536  -27.8814    6.2882 -100.2602  -32.3097
  4.940  -27.6232    5.5139  -27.7044    6.3562  -27.5516    6.2765  -28.1599    5.2829  -27.1215    6.1876  -27.3874    6.3267 -111.2637  -32.3506
  4.950  -27.1189    5.5723  -27.2049    6.3938  -27.0439    6.3122  -27.6327    5.3406  -26.6197    6.2290  -26.8967    6.3728 -123.1152  -32.3958
  4.960  -26.6179    5.6377  -26.7086    6.4392  -26.5389    6.3556  -27.1091    5.4052  -26.1201    6.2781  -26.4089    6.4267 -135.8367  -32.4457
  4.970  -26.1201    5.7105  -26.2153    6.4924  -26.0363    6.4069  -26.5888    5.4770  -25.6224    6.3350  -25.9239    6.4886 -149.4466  -32.5006
  4.980  -25.6251    5.7909  -25.7246    6.5539  -25.5359    6.4663  -26.0713    5.5564  -25.1264    6.4000  -25.4415    6.5589 -163.9597  -32.5609
  4.990  -25.1327    5.8792  -25.2364    6.6239  -25.0372    6.5342  -25.5563    5.6436  -24.6318    6.4734  -24.9614    6.6378 -179.3876  -32.6268
  5.000  -24.6428    5.9757  -24.7505    6.7026  -24.5402    6.6108  -25.0435    5.7389  -24.1383    6.5556  -24.4835    6.7257 -195.7389  -32.6988
  5.010  -24.1551    6.0808  -24.2668    6.7904  -24.0445    6.6964  -24.5327    5.8428  -23.6457    6.6469  -24.0077    6.8229 -213.0195  -32.7770
  5.020  -23.6696    6.1948  -23.7851    6.8877  -23.5501    6.7915  -24.0235    5.9556  -23.1537    6.7478  -23.5338    6.9299 -231.2335  -32.8620
  5.030  -23.1861    6.3182  -23.3053    6.9948  -23.0566    6.8964  -23.5158    6.0779  -22.6622    6.8586  -23.0618    7.0471 -250.3838  -32.9540
  5.040  -22.7046    6.4514  -22.8273    7.1121  -22.5641    7.0114  -23.0093    6.2099  -22.1709    6.9799  -22.5917    7.1750 -270.4729  -33.0534
  5.050  -22.2250    6.5947  -22.3513    7.2401  -22.0723    7.1371  -22.5039    6.3524  -21.6797    7.1121  -22.1235    7.3140 -291.5034  -33.1605
  5.060  -21.7475    6.7487  -21.8772    7.3792  -21.5811    7.2738  -21.9993    6.5057  -21.1885    7.2558  -21.6573    7.4647 -313.4789  -33.2757
  5.070  -21.2720    6.9137  -21.4051    7.5297  -21.0906    7.4221  -21.4955    6.6704  -20.6972    7.4116  -21.1932    7.6277 -336.4035  -33.3994
  5.080  -20.7987    7.0902  -20.9351    7.6923  -20.6006    7.5825  -20.9925    6.8472  -20.2056    7.5801  -20.7315    7.8035 -360.2815  -33.5318
  5.090  -20.3277    7.2786  -20.4675    7.8672  -20.1112    7.7552  -20.4900    7.0365  -19.7138    7.7618  -20.2724    7.9926 -385.1165  -33.6733
  5.100  -19.8593    7.4792  -20.0024    8.0549  -19.6223    7.9410  -19.9881    7.2391  -19.2216    7.9575  -19.8164    8.1956 -410.9090  -33.8243
  5.110  -19.3937    7.6923  -19.5402    8.2557  -19.1340    8.1401  -19.4867    7.4556  -18.7291    8.1679  -19.3637    8.4131 -437.6533  -33.9851
  5.120  -18.9311    7.9182  -19.0812    8.4699  -18.6462    8.3531  -18.9858    7.6865  -18.2361    8.3936  -18.9150    8.6455 -465.3332  -34.1562
  5.130  -18.4717    8.1571  -18.6256    8.6978  -18.1590    8.5802  -18.4854    7.9326  -17.7428    8.6354  -18.4709    8.8933 -493.9168  -34.3377
  5.140  -18.0158    8.4090  -18.1739    8.9395  -17.6721    8.8220  -17.9854    8.1945  -17.2489    8.8941  -18.0320    9.1568 -523.3501  -34.5300
  5.150  -17.5633    8.6738  -17.7262    9.1949  -17.1853    9.0787  -17.4857    8.4728  -16.7545    9.1705  -17.5991    9.4364 -553.5501  -34.7334
  5.160  -17.1142    8.9513  -17.2827    9.4639  -16.6983    9.3508  -16.9860    8.7684  -16.2591    9.4654  -17.1729    9.7320 -584.3981  -34.9482
  5.170  -16.6682    9.2412  -16.8433    9.7464  -16.2103    9.6386  -16.4858    9.0819  -15.7626    9.7800  -16.7541   10.0436 -615.7330  -35.1745
  5.180  -16.2244    9.5432  -16.4077   10.0419  -15.7203    9.9427  -15.9847    9.4145  -15.2644   10.1154  -16.3435   10.3710 -647.3455  -35.4124
  5.190  -15.7816    9.8570  -15.9751   10.3502  -15.2271   10.2640  -15.4818    9.7673  -14.7638   10.4732  -15.9414   10.7136 -678.9756  -35.6619
  5.200  -15.3379   10.1824  -15.5442   10.6709  -14.7288   10.6038  -14.9759   10.1419  -14.2600   10.8553  -15.5482   11.0708 -710.3109  -35.9229
  5.210  -14.8905   10.5198  -15.1133   11.0041  -14.2234   10.9640  -14.4657   10.5405  -13.7519   11.2644  -15.1636   11.4418 -740.9900  -36.1952
  5.220  -14.4358   10.8703  -14.6795   11.3504  -13.7083   11.3477  -13.9495   10.9664  -13.2386   11.7038  -14.7869   11.8255 -770.6082  -36.4784
  5.230  -13.9695   11.2367  -14.2394   11.7114  -13.1809   11.7590  -13.4257   11.4238  -12.7191   12.1784  -14.4165   12.2211 -798.7286  -36.7719
  5.240  -13.4863   11.6235  -13.7892   12.0901  -12.6389   12.2041  -12.8930   11.9189  -12.1935   12.6940  -14.0500   12.6283 -824.8953  -37.0751
  5.250  -12.9815   12.0385  -13.3247   12.4919  -12.0812   12.6908  -12.3515   12.4595  -11.6628   13.2583  -13.6839   13.0474 -848.6514  -37.3870
  5.260  -12.4516   12.4927  -12.8427   12.9245  -11.5081   13.2290  -11.8032   13.0555  -11.1305   13.8801  -13.3138   13.4806 -869.5582  -37.7065
  5.270  -11.8966   13.0006  -12.3420   13.3986  -10.9234   13.8300  -11.2537   13.7182  -10.6032   14.5690  -12.9348   13.9320 -887.2157  -38.0326
  5.280  -11.3220   13.5790  -11.8251   13.9265  -10.3341   14.5054  -10.7133   14.4586  -10.0913   15.3338  -12.5425   14.4085 -901.2825  -38.3638
  5.290  -10.7407   14.2436  -11.2995   14.5209   -9.7516   15.2657  -10.1976   15.2854   -9.6092   16.1807  -12.1343   14.9201 -911.4941  -38.6987
  5.300  -10.1719   15.0059  -10.7772   15.1919   -9.1910   16.1184   -9.7256   16.2015   -9.1739   17.1110  -11.7105   15.4792 -917.6772  -39.0360
  5.310   -9.6387   15.8694  -10.2734   15.9453   -8.6689   17.0665   -9.3171   17.2031   -8.8024   18.1207  -11.2757   16.0991 -919.7595  -39.3740
  5.320   -9.1627   16.8289   -9.8034   16.7819   -8.2022   18.1089   -8.9889   18.2799   -8.5086   19.2006  -10.8394   16.7928 -917.7738  -39.7113
  5.330   -8.7606   17.8738   -9.3807   17.6986   -7.8058   19.2409   -8.7516   19.4182   -8.3018   20.3395  -10.4146   17.5709 -911.8567  -40.0464
  5.340   -8.4427   18.9914   -9.0152   18.6908   -7.4918   20.4562   -8.6100   20.6047   -8.1868   21.5267  -10.0176   18.4406 -902.2403  -40.3779
  5.350   -8.2142   20.1714   -8.7151   19.7546   -7.2707   21.7488   -8.5652   21.8299   -8.1658   22.7545   -9.6661   19.4057 -889.2397  -40.7047
  5.360   -8.0783   21.4070   -8.4879   20.8879   -7.1519   23.1137   -8.6178   23.0878   -8.2413   24.0184   -9.3786   20.4665 -873.2360  -41.0256
  5.370   -8.0395   22.6949   -8.3421   22.0895   -7.1463   24.5470   -8.7703   24.3761   -8.4174   25.3161   -9.1735   21.6205 -854.6560  -41.3397
  5.380   -8.1050   24.0332   -8.2886   23.3589   -7.2668   26.0445   -9.0288   25.6931   -8.7019   26.6458   -9.0698   22.8625 -833.9517  -41.6462
  5.390   -8.2855   25.4199   -8.3411   24.6945   -7.5294   27.6006   -9.4030   27.0361   -9.1058   28.0041   -9.0863   24.1844 -811.5785  -41.9444
  5.400   -8.5952   26.8508   -8.5160   26.0922   -7.9530   29.2065   -9.9055   28.3997   -9.6431   29.3846   -9.2422   25.5754 -787.9769  -42.2340
  5.410   -9.0511   28.3175   -8.8323   27.5443   -8.5585   30.8480  -10.5511   29.7740  -10.3292   30.7763   -9.5568   27.0207 -763.5555  -42.5146
  5.420   -9.6714   29.8065   -9.3101   29.0382   -9.3676   32.5044  -11.3548   31.1437  -11.1801   32.1625  -10.0489   28.5011 -738.6788  -42.7861
  5.430  -10.4743   31.2983   -9.9698   30.5553  -10.4004   34.1473  -12.3303   32.4879  -12.2098   33.5207  -10.7357   29.9924 -713.6583  -43.0483
  5.440  -11.4756   32.7664  -10.8303   32.0703  -11.6728   35.7401  -13.4880   33.7798  -13.4290   34.8223  -11.6312   31.4645 -688.7481  -43.3014
  5.450  -12.6867   34.1778  -11.9065   33.5507  -13.1939   37.2384  -14.8329   34.9873  -14.8424   36.0331  -12.7446   32.8821 -664.1448  -43.5455
  5.460  -14.1120   35.4936  -13.2072   34.9576  -14.9619   38.5919  -16.3627   36.0746  -16.4469   37.1153  -14.0779   34.2046 -639.9896  -43.7807
  5.470  -15.7467   36.6712  -14.7322   36.2469  -16.9622   39.7468  -18.0661   37.0040  -18.2299   38.0287  -15.6239   35.3886 -616.3741  -44.0072
  5.480  -17.5748   37.6662  -16.4705   37.3716  -19.1649   40.6505  -19.9218   37.7386  -20.1680   38.7347  -17.3642   36.3899 -593.3473  -44.2253
  5.490  -19.5683   38.4369  -18.3979   38.2856  -21.5251   41.2566  -21.8985   38.2456  -22.2271   39.1989  -19.2686   37.1673 -570.9235  -44.4351
  5.500  -21.6875   38.9474  -20.4779   38.9475  -23.9845   41.5301  -23.9562   38.4996  -24.3634   39.3950  -21.2959   37.6866 -549.0911  -44.6369
  5.510  -23.8833   39.1722  -22.6621   39.3251  -26.4751   41.4523  -26.0480   38.4849  -26.5264   39.3079  -23.3956   37.9241 -527.8204  -44.8308
  5.520  -26.1002   39.0984  -24.8943   39.3991  -28.9256   41.0228  -28.1240   38.1980  -28.6624   38.9356  -25.5118   37.8696 -507.0708  -45.0172
  5.530  -28.2809   38.7279  -27.1141   39.1657  -31.2672   40.2607  -30.1347   37.6479  -30.7184   38.2896  -27.5878   37.5275 -486.7971  -45.1961
  5.540  -30.3710   38.0769  -29.2628   38.6366  -33.4399   39.2015  -32.0350   36.8550  -32.6470   37.3942  -29.5707   36.9167 -466.9545  -45.3677
  5.550  -32.3231   37.1741  -31.2878   37.8377  -35.3970   37.8938  -33.7872   35.8492  -34.4093   36.2837  -31.4157   36.0677 -447.5025  -45.5321
  5.560  -34.1000   36.0572  -33.1464   36.8059  -37.1074   36.3929  -35.3629   34.6669  -35.9772   34.9988  -33.0887   35.0194 -428.4070  -45.6896
  5.570  -35.6761   34.7693  -34.8084   35.5852  -38.5561   34.7564  -36.7443   33.3480  -37.3341   33.5834  -34.5678   33.8150 -409.6423  -45.8401
  5.580  -37.0375   33.3553  -36.2562   34.2220  -39.7422   33.0388  -37.9233   31.9321  -38.4744   32.0805  -35.8425   32.4981 -391.1914  -45.9839
  5.590  -38.1811   31.8582  -37.4840   32.7618  -40.6764   31.2885  -38.9007   30.4568  -39.4020   30.5300  -36.9127   31.1096 -373.0462  -46.1210
  5.600  -39.1127   30.3169  -38.4959   31.2462  -41.3778   29.5460  -39.6840   28.9553  -40.1279   28.9665  -37.7862   29.6856 -355.2064  -46.2515
  5.610  -39.8445   28.7647  -39.3034   29.7107  -41.8705   27.8429  -40.2862   27.4558  -40.6683   27.4186  -38.4768   28.2564 -337.6794  -46.3756
  5.620  -40.3931   27.2289  -39.9232   28.1846  -42.1810   26.2025  -40.7234   25.9812  -41.0422   25.9086  -39.0016   26.8459 -320.4782  -46.4934
  5.630  -40.7774   25.7306  -40.3745   26.6903  -42.3361   24.6403  -41.0133   24.5489  -41.2700   24.4530  -39.3793   25.4718 -303.6210  -46.6049
  5.640  -41.0174   24.2853  -40.6777   25.2445  -42.3613   23.1658  -41.1740   23.1717  -41.3719   23.0629  -39.6288   24.1468 -287.1290  -46.7105
  5.650  -41.1326   22.9038  -40.8527   23.8582  -42.2799   21.7832  -41.2235   21.8581  -41.3671   21.7453  -39.7682   22.8789 -271.0261  -46.8101
  5.660  -41.1417   21.5925  -40.9184   22.5385  -42.1123   20.4931  -41.1783   20.6134  -41.2733   20.5036  -39.8140   21.6728 -255.3370  -46.9039
  5.670  -41.0614   20.3550  -40.8918   21.2890  -41.8762   19.2931  -41.0538   19.4399  -41.1060   19.3384  -39.7810   20.5303 -240.0866  -46.9921
  5.680  -40.9070   19.1922  -40.7879   20.1108  -41.5865   18.1793  -40.8636   18.3381  -40.8791   18.2486  -39.6819   19.4515 -225.2989  -47.0749
  5.690  -40.6919   18.1032  -40.6201   19.0032  -41.2553   17.1466  -40.6196   17.3068  -40.6044   17.2316  -39.5279   18.4352 -210.9963  -47.1525
  5.700  -40.4275   17.0860  -40.3997   17.9645  -40.8926   16.1897  -40.3324   16.3438  -40.2917   16.2841  -39.3283   17.4793 -197.1992  -47.2249
  5.710  -40.1238   16.1374  -40.1363   16.9921  -40.5065   15.3028  -40.0109   15.4460  -39.9494   15.4022  -39.0911   16.5813 -183.9251  -47.2925
  5.720  -39.7892   15.2541  -39.8383   16.0828  -40.1032   14.4804  -39.6626   14.6100  -39.5846   14.5818  -38.8231   15.7385 -171.1887  -47.3554
  5.730  -39.4307   14.4321  -39.5126   15.2333  -39.6881   13.7174  -39.2939   13.8321  -39.2029   13.8187  -38.5301   14.9479 -159.0014  -47.4139
  5.740  -39.0543   13.6675  -39.1652   14.4401  -39.2650   13.0089  -38.9103   13.1085  -38.8091   13.1089  -38.2170   14.2067 -147.3712  -47.4680
  5.750  -38.6649   12.9565  -38.8011   13.6999  -38.8374   12.3505  -38.5160   12.4354  -38.4071   12.4485  -37.8879   13.5120 -136.3028  -47.5181
  5.760  -38.2666   12.2951  -38.4246   13.0091  -38.4079   11.7381  -38.1149   11.8093  -38.0001   11.8337  -37.5466   12.8610 -125.7977  -47.5643
  5.770  -37.8626   11.6798  -38.0392   12.3645  -37.9784   11.1679  -37.7098   11.2265  -37.5907   11.2611  -37.1960   12.2511 -115.8540  -47.6069
  5.780  -37.4558   11.1070  -37.6479   11.7629  -37.5509   10.6366  -37.3033   10.6838  -37.1810   10.7274  -36.8388   11.6796 -106.4669  -47.6460
  5.790  -37.0484   10.5735  -37.2533   11.2014  -37.1265   10.1410  -36.8973   10.1781  -36.7728   10.2296  -36.4772   11.1440  -97.6289  -47.6819
  5.800  -36.6422   10.0762  -36.8575   10.6770  -36.7064    9.6785  -36.4934    9.7064  -36.3674    9.7650  -36.1133   10.6421  -89.3299  -47.7147
  5.810  -36.2387    9.6124  -36.4621   10.1870  -36.2915    9.2463  -36.0929    9.2663  -35.9659    9.3309  -35.7485   10.1714  -81.5572  -47.7447
  5.820  -35.8390    9.1793  -36.0687    9.7290  -35.8825    8.8422  -35.6967    8.8551  -35.5692    8.9250  -35.3843    9.7300  -74.2966  -47.7720
  5.830  -35.4440    8.7747  -35.6783    9.3006  -35.4798    8.4639  -35.3058    8.4705  -35.1779    8.5451  -35.0217    9.3158  -67.5319  -47.7968
  5.840  -35.0545    8.3962  -35.2919    8.8995  -35.0840    8.1096  -34.9206    8.1106  -34.7927    8.1892  -34.6618    8.9269  -61.2453  -47.8193
  5.850  -34.6709    8.0418  -34.9103    8.5238  -34.6952    7.7773  -34.5416    7.7734  -34.4139    7.8555  -34.3053    8.5615  -55.4181  -47.8397
  5.860  -34.2938    7.7097  -34.5341    8.1715  -34.3137    7.4655  -34.1691    7.4572  -34.0417    7.5423  -33.9529    8.2180  -50.0305  -47.8581
  5.870  -33.9233    7.3981  -34.1636    7.8410  -33.9396    7.1726  -33.8035    7.1603  -33.6764    7.2481  -33.6049    7.8949  -45.0622  -47.8747
  5.880  -33.5598    7.1056  -33.7993    7.5305  -33.5730    6.8971  -33.4447    6.8813  -33.3181    6.9714  -33.2619    7.5907  -40.4922  -47.8895
  5.890  -33.2032    6.8306  -33.4413    7.2387  -33.2138    6.6379  -33.0929    6.6188  -32.9668    6.7109  -32.9241    7.3041  -36.2993  -47.9029
  5.900  -32.8537    6.5719  -33.0899    6.9641  -32.8622    6.3937  -32.7482    6.3717  -32.6226    6.4655  -32.5917    7.0339  -32.4625  -47.9148
  5.910  -32.5112    6.3282  -32.7451    6.7055  -32.5179    6.1635  -32.4104    6.1387  -32.2854    6.2341  -32.2650    6.7789  -28.9605  -47.9255
  5.920  -32.1758    6.0984  -32.4070    6.4617  -32.1810    5.9462  -32.0796    5.9189  -31.9552    6.0156  -31.9439    6.5381  -25.7725  -47.9349
  5.930  -31.8473    5.8816  -32.0756    6.2318  -31.8512    5.7409  -31.7556    5.7113  -31.6319    5.8092  -31.6286    6.3105  -22.8780  -47.9433
  5.940  -31.5256    5.6768  -31.7509    6.0146  -31.5286    5.5468  -31.4384    5.5151  -31.3153    5.6139  -31.3191    6.0952  -20.2570  -47.9508
  5.950  -31.2108    5.4831  -31.4327    5.8093  -31.2128    5.3631  -31.1278    5.3294  -31.0054    5.4291  -31.0154    5.8913  -17.8900  -47.9573
  5.960  -30.9025    5.2999  -31.1211    5.6151  -30.9039    5.1892  -30.8237    5.1536  -30.7019    5.2540  -30.7174    5.6981  -15.7583  -47.9631
  5.970  -30.6008    5.1263  -30.8158    5.4312  -30.6015    5.0243  -30.5259    4.9869  -30.4048    5.0879  -30.4251    5.5150  -13.8438  -47.9682
  5.980  -30.3054    4.9617  -30.5168    5.2569  -30.3056    4.8678  -30.2344    4.8287  -30.1140    4.9302  -30.1384    5.3411  -12.1291  -47.9727
  5.990  -30.0161    4.8055  -30.2240    5.0916  -30.0160    4.7192  -29.9489    4.6786  -29.8292    4.7805  -29.8573    5.1760  -10.5978  -47.9766
  6.000  -29.7329    4.6572  -29.9372    4.9346  -29.7324    4.5779  -29.6693    4.5359  -29.5503    4.6381  -29.5815    5.0190   -9.2341  -47.9800
  6.010  -29.4556    4.5162  -29.6563    4.7854  -29.4549    4.4436  -29.3954    4.4001  -29.2771    4.5027  -29.3111    4.8697   -8.0234  -47.9829
  6.020  -29.1840    4.3820  -29.3811    4.6436  -29.1830    4.3157  -29.1271    4.2709  -29.0095    4.3737  -29.0459    4.7275   -6.9515  -47.9855
  6.030  -28.9179    4.2543  -29.1115    4.5086  -28.9168    4.1939  -28.8642    4.1478  -28.7473    4.2507  -28.7858    4.5920   -6.0055  -47.9877
  6.040  -28.6572    4.1326  -28.8473    4.3800  -28.6561    4.0777  -28.6066    4.0304  -28.4904    4.1335  -28.5307    4.4629   -5.1731  -47.9896
  6.050  -28.4018    4.0166  -28.5884    4.2574  -28.4006    3.9668  -28.3540    3.9184  -28.2386    4.0215  -28.2804    4.3396   -4.4429  -47.9912
  6.060  -28.1514    3.9059  -28.3346    4.1405  -28.1502    3.8610  -28.1065    3.8115  -27.9918    3.9146  -28.0348    4.2219   -3.8044  -47.9926
  6.070  -27.9060    3.8001  -28.0858    4.0289  -27.9048    3.7598  -27.8638    3.7093  -27.7498    3.8124  -27.7939    4.1095   -3.2478  -47.9938
  6.080  -27.6653    3.6990  -27.8419    3.9222  -27.6642    3.6631  -27.6257    3.6116  -27.5125    3.7147  -27.5575    4.0019   -2.7642  -47.9948
  6.090  -27.4293    3.6024  -27.6027    3.8202  -27.4282    3.5706  -27.3922    3.5182  -27.2797    3.6211  -27.3254    3.8990   -2.3453  -47.9957
  6.100  -27.1978    3.5099  -27.3681    3.7227  -27.1968    3.4819  -27.1631    3.4286  -27.0513    3.5315  -27.0976    3.8005   -1.9837  -47.9964
  6.110  -26.9707    3.4213  -27.1379    3.6292  -26.9698    3.3970  -26.9383    3.3429  -26.8272    3.4455  -26.8740    3.7061   -1.6726  -47.9970
  6.120  -26.7479    3.3364  -26.9121    3.5398  -26.7470    3.3155  -26.7176    3.2607  -26.6072    3.3631  -26.6544    3.6156   -1.4058  -47.9975
  6.130  -26.5291    3.2550  -26.6904    3.4540  -26.5284    3.2374  -26.5009    3.1818  -26.3913    3.2841  -26.4387    3.5288   -1.1778  -47.9980
  6.140  -26.3143    3.1769  -26.4728    3.3717  -26.3138    3.1624  -26.2881    3.1061  -26.1793    3.2081  -26.2268    3.4454   -0.9836  -47.9983
  6.150  -26.1035    3.1019  -26.2591    3.2927  -26.1031    3.0903  -26.0792    3.0333  -25.9710    3.1351  -26.0187    3.3654   -0.8187  -47.9986
  6.160  -25.8963    3.0299  -26.0493    3.2168  -25.8961    3.0211  -25.8739    2.9634  -25.7665    3.0650  -25.8141    3.2884   -0.6793  -47.9989
  6.170  -25.6929    2.9607  -25.8432    3.1439  -25.6928    2.9545  -25.6722    2.8962  -25.5655    2.9975  -25.6131    3.2144   -0.5617  -47.9991
  6.180  -25.4930    2.8941  -25.6407    3.0738  -25.4930    2.8903  -25.4739    2.8316  -25.3679    2.9325  -25.4154    3.1433   -0.4630  -47.9993
  6.190  -25.2965    2.8300  -25.4417    3.0063  -25.2967    2.8286  -25.2791    2.7693  -25.1738    2.8700  -25.2211    3.0747   -0.3803  -47.9994
  6.200  -25.1033    2.7683  -25.2461    2.9414  -25.1038    2.7691  -25.0875    2.7093  -24.9829    2.8097  -25.0300    3.0087   -0.3114  -47.9995
  6.210  -24.9135    2.7088  -25.0539    2.8788  -24.9140    2.7118  -24.8991    2.6516  -24.7952    2.7516  -24.8421    2.9451   -0.2541  -47.9996
  6.220  -24.7267    2.6516  -24.8648    2.8185  -24.7275    2.6566  -24.7137    2.5958  -24.6106    2.6955  -24.6572    2.8838   -0.2066  -47.9997
  6.230  -24.5431    2.5963  -24.6789    2.7604  -24.5440    2.6032  -24.5314    2.5421  -24.4290    2.6414  -24.4753    2.8247   -0.1675  -47.9998
  6.240  -24.3624    2.5430  -24.4960    2.7043  -24.3635    2.5517  -24.3520    2.4902  -24.2504    2.5892  -24.2963    2.7676   -0.1353  -47.9998
  6.250  -24.1846    2.4916  -24.3161    2.6502  -24.1859    2.5020  -24.1755    2.4402  -24.0745    2.5387  -24.1201    2.7124   -0.1089  -47.9998
  6.260  -24.0097    2.4419  -24.1391    2.5979  -24.0111    2.4539  -24.0017    2.3918  -23.9014    2.4900  -23.9467    2.6592   -0.0873  -47.9999
  6.270  -23.8374    2.3939  -23.9648    2.5474  -23.8391    2.4075  -23.8307    2.3450  -23.7311    2.4428  -23.7759    2.6077   -0.0698  -47.9999
  6.280  -23.6679    2.3475  -23.7933    2.4986  -23.6697    2.3626  -23.6622    2.2998  -23.5633    2.3972  -23.6078    2.5580   -0.0556  -47.9999
  6.290  -23.5009    2.3026  -23.6244    2.4515  -23.5029    2.3191  -23.4963    2.2561  -23.3981    2.3531  -23.4421    2.5098   -0.0442  -47.9999
  6.300  -23.3365    2.2592  -23.4581    2.4058  -23.3387    2.2770  -23.3329    2.2137  -23.2354    2.3103  -23.2790    2.4632   -0.0349  -48.0000
  6.310  -23.1746    2.2172  -23.2944    2.3616  -23.1769    2.2363  -23.1719    2.1728  -23.0750    2.2689  -23.1182    2.4181   -0.0276  -48.0000
  6.320  -23.0150    2.1765  -23.1330    2.3188  -23.0175    2.1968  -23.0132    2.1331  -22.9171    2.2288  -22.9598    2.3744   -0.0216  -48.0000
  6.330  -22.8578    2.1371  -22.9741    2.2774  -22.8604    2.1585  -22.8569    2.0946  -22.7614    2.1900  -22.8037    2.3321   -0.0169  -48.0000
  6.340  -22.7028    2.0989  -22.8174    2.2372  -22.7057    2.1214  -22.7028    2.0574  -22.6080    2.1523  -22.6498    2.2911   -0.0132  -48.0000
  6.350  -22.5501    2.0619  -22.6631    2.1983  -22.5531    2.0854  -22.5509    2.0212  -22.4567    2.1157  -22.4981    2.2513   -0.0103  -48.0000
  6.360  -22.3995    2.0260  -22.5109    2.1605  -22.4027    2.0505  -22.4011    1.9862  -22.3076    2.0802  -22.3485    2.2127   -0.0080  -48.0000
  6.370  -22.2511    1.9911  -22.3609    2.1239  -22.2544    2.0166  -22.2534    1.9521  -22.1605    2.0458  -22.2010    2.1752   -0.0061  -48.0000
  6.380  -22.1047    1.9573  -22.2130    2.0883  -22.1082    1.9836  -22.1077    1.9191  -22.0155    2.0123  -22.0555    2.1389   -0.0047  -48.0000
  6.390  -21.9603    1.9245  -22.0671    2.0538  -21.9639    1.9517  -21.9640    1.8870  -21.8724    1.9798  -21.9120    2.1035   -0.0036  -48.0000
  6.400  -21.8179    1.8926  -21.9232    2.0203  -21.8216    1.9206  -21.8222    1.8559  -21.7313    1.9482  -21.7704    2.0692   -0.0028  -48.0000
  6.410  -21.6774    1.8617  -21.7813    1.9877  -21.6813    1.8904  -21.6823    1.8256  -21.5920    1.9175  -21.6307    2.0359   -0.0021  -48.0000
  6.420  -21.5387    1.8316  -21.6413    1.9560  -21.5428    1.8610  -21.5443    1.7962  -21.4546    1.8876  -21.4928    2.0035   -0.0016  -48.0000
  6.430  -21.4019    1.8023  -21.5031    1.9252  -21.4061    1.8324  -21.4080    1.7676  -21.3190    1.8586  -21.3568    1.9720   -0.0012  -48.0000
  6.440  -21.2669    1.7738  -21.3668    1.8953  -21.2712    1.8046  -21.2735    1.7397  -21.1851    1.8303  -21.2224    1.9413   -0.0009  -48.0000
  6.450  -21.1336    1.7462  -21.2322    1.8662  -21.1380    1.7775  -21.1408    1.7127  -21.0530    1.8028  -21.0898    1.9115   -0.0007  -48.0000
  6.460  -21.0020    1.7192  -21.0993    1.8378  -21.0065    1.7512  -21.0097    1.6863  -20.9225    1.7760  -20.9589    1.8824   -0.0005  -48.0000
  6.470  -20.8721    1.6930  -20.9682    1.8102  -20.8767    1.7255  -20.8802    1.6607  -20.7937    1.7499  -20.8296    1.8542   -0.0004  -48.0000
  6.480  -20.7437    1.6675  -20.8387    1.7833  -20.7485    1.7005  -20.7524    1.6357  -20.6664    1.7244  -20.7020    1.8266   -0.0003  -48.0000
  6.490  -20.6170    1.6426  -20.7108    1.7571  -20.6220    1.6761  -20.6261    1.6113  -20.5407    1.6996  -20.5759    1.7998   -0.0002  -48.0000
  6.500  -20.4919    1.6184  -20.5845    1.7316  -20.4969    1.6523  -20.5014    1.5876  -20.4166    1.6755  -20.4513    1.7737   -0.0002  -48.0000
  6.510  -20.3682    1.5948  -20.4598    1.7068  -20.3734    1.6292  -20.3781    1.5645  -20.2939    1.6519  -20.3282    1.7482   -0.0001  -48.0000
  6.520  -20.2461    1.5717  -20.3365    1.6825  -20.2513    1.6066  -20.2564    1.5419  -20.1728    1.6289  -20.2066    1.7233   -0.0001  -48.0000
  6.530  -20.1254    1.5493  -20.2148    1.6589  -20.1307    1.5845  -20.1360    1.5199  -20.0530    1.6065  -20.0865    1.6991   -0.0001  -48.0000
  6.540  -20.0061    1.5274  -20.0945    1.6358  -20.0116    1.5630  -20.0171    1.4985  -19.9347    1.5846  -19.9677    1.6754   -0.0000  -48.0000
  6.550  -19.8882    1.5061  -19.9756    1.6133  -19.8938    1.5420  -19.8996    1.4776  -19.8177    1.5633  -19.8504    1.6524   -0.0000  -48.0000
  6.560  -19.7717    1.4852  -19.8581    1.5914  -19.7774    1.5215  -19.7834    1.4572  -19.7021    1.5424  -19.7344    1.6299   -0.0000  -48.0000
  6.570  -19.6566    1.4649  -19.7420    1.5699  -19.6623    1.5015  -19.6686    1.4372  -19.5878    1.5220  -19.6197    1.6079   -0.0000  -48.0000
  6.580  -19.5427    1.4450  -19.6272    1.5490  -19.5486    1.4819  -19.5550    1.4178  -19.4748    1.5021  -19.5063    1.5864   -0.0000  -48.0000
  6.590  -19.4301    1.4256  -19.5137    1.5286  -19.4361    1.4628  -19.4428    1.3987  -19.3631    1.4827  -19.3942    1.5654   -0.0000  -48.0000
  6.600  -19.3188    1.4067  -19.4015    1.5086  -19.3249    1.4441  -19.3317    1.3802  -19.2526    1.4637  -19.2833    1.5449   -0.0000  -48.0000
  6.610  -19.2088    1.3882  -19.2905    1.4891  -19.2149    1.4258  -19.2219    1.3620  -19.1433    1.4451  -19.1737    1.5249   -0.0000  -48.0000
  6.620  -19.0999    1.3701  -19.1808    1.4700  -19.1061    1.4080  -19.1133    1.3443  -19.0352    1.4269  -19.0653    1.5053   -0.0000  -48.0000
  6.630  -18.9922    1.3524  -19.0723    1.4513  -18.9985    1.3905  -19.0059    1.3269  -18.9283    1.4092  -18.9580    1.4862   -0.0000  -48.0000
  6.640  -18.8857    1.3351  -18.9649    1.4331  -18.8921    1.3734  -18.8996    1.3100  -18.8226    1.3918  -18.8519    1.4675   -0.0000  -48.0000
  6.650  -18.7804    1.3182  -18.8587    1.4153  -18.7868    1.3567  -18.7945    1.2934  -18.7180    1.3748  -18.7469    1.4492   -0.0000  -48.0000
  6.660  -18.6761    1.3017  -18.7537    1.3978  -18.6827    1.3403  -18.6904    1.2772  -18.6144    1.3581  -18.6431    1.4313   -0.0000  -48.0000
  6.670  -18.5730    1.2855  -18.6498    1.3807  -18.5796    1.3243  -18.5875    1.2613  -18.5120    1.3418  -18.5403    1.4137   -0.0000  -48.0000
  6.680  -18.4709    1.2697  -18.5470    1.3640  -18.4776    1.3086  -18.4856    1.2458  -18.4106    1.3259  -18.4386    1.3966   -0.0000  -48.0000
  6.690  -18.3699    1.2542  -18.4452    1.3477  -18.3767    1.2933  -18.3848    1.2306  -18.3103    1.3103  -18.3379    1.3798   -0.0000  -48.0000
  6.700  -18.2699    1.2390  -18.3445    1.3317  -18.2768    1.2782  -18.2850    1.2157  -18.2110    1.2950  -18.2383    1.3634   -0.0000  -48.0000
  6.710  -18.1710    1.2242  -18.2449    1.3160  -18.1779    1.2635  -18.1862    1.2011  -18.1128    1.2800  -18.1397    1.3473   -0.0000  -48.0000
  6.720  -18.0731    1.2096  -18.1462    1.3006  -18.0800    1.2491  -18.0885    1.1868  -18.0155    1.2653  -18.0421    1.3315   -0.0000  -48.0000
  6.730  -17.9761    1.1954  -18.0486    1.2856  -17.9831    1.2349  -17.9917    1.1728  -17.9191    1.2509  -17.9455    1.3161   -0.0000  -48.0000
  6.740  -17.8801    1.1814  -17.9519    1.2708  -17.8872    1.2211  -17.8958    1.1591  -17.8238    1.2368  -17.8498    1.3009   -0.0000  -48.0000
  6.750  -17.7851    1.1678  -17.8562    1.2564  -17.7922    1.2075  -17.8009    1.1457  -17.7294    1.2230  -17.7551    1.2861   -0.0000  -48.0000
  6.760  -17.6910    1.1544  -17.7615    1.2422  -17.6982    1.1941  -17.7070    1.1325  -17.6359    1.2095  -17.6613    1.2715   -0.0000  -48.0000
  6.770  -17.5978    1.1412  -17.6677    1.2283  -17.6050    1.1811  -17.6139    1.1196  -17.5433    1.1962  -17.5684    1.2573   -0.0000  -48.0000
  6.780  -17.5055    1.1284  -17.5748    1.2147  -17.5128    1.1682  -17.5218    1.1070  -17.4516    1.1831  -17.4765    1.2433   -0.0000  -48.0000
  6.790  -17.4142    1.1157  -17.4828    1.2014  -17.4215    1.1557  -17.4305    1.0946  -17.3608    1.1703  -17.3854    1.2296   -0.0000  -48.0000
  6.800  -17.3236    1.1034  -17.3917    1.1883  -17.3310    1.1433  -17.3401    1.0824  -17.2708    1.1578  -17.2951    1.2162   -0.0000  -48.0000
  6.810  -17.2340    1.0912  -17.3015    1.1754  -17.2414    1.1312  -17.2505    1.0705  -17.1817    1.1455  -17.2058    1.2030   -0.0000  -48.0000
  6.820  -17.1452    1.0793  -17.2121    1.1628  -17.1526    1.1193  -17.1618    1.0588  -17.0934    1.1334  -17.1172    1.1900   -0.0000  -48.0000
  6.830  -17.0572    1.0676  -17.1235    1.1504  -17.0647    1.1077  -17.0739    1.0473  -17.0060    1.1215  -17.0295    1.1773   -0.0000  -48.0000
  6.840  -16.9700    1.0561  -17.0358    1.1383  -16.9776    1.0962  -16.9868    1.0360  -16.9193    1.1099  -16.9426    1.1648   -0.0000  -48.0000
  6.850  -16.8837    1.0449  -16.9489    1.1264  -16.8912    1.0849  -16.9006    1.0250  -16.8335    1.0984  -16.8565    1.1526   -0.0000  -48.0000
  6.860  -16.7981    1.0338  -16.8628    1.1146  -16.8057    1.0739  -16.8151    1.0141  -16.7484    1.0872  -16.7712    1.1406   -0.0000  -48.0000
  6.870  -16.7133    1.0230  -16.7775    1.1031  -16.7209    1.0630  -16.7303    1.0034  -16.6641    1.0762  -16.6866    1.1288   -0.0000  -48.0000
  6.880  -16.6293    1.0123  -16.6929    1.0919  -16.6369    1.0524  -16.6464    0.9930  -16.5806    1.0653  -16.6029    1.1172   -0.0000  -48.0000
  6.890  -16.5460    1.0019  -16.6092    1.0808  -16.5537    1.0419  -16.5632    0.9827  -16.4978    1.0547  -16.5198    1.1058   -0.0000  -48.0000
  6.900  -16.4634    0.9916  -16.5261    1.0699  -16.4712    1.0316  -16.4807    0.9726  -16.4157    1.0442  -16.4375    1.0946   -0.0000  -48.0000
  6.910  -16.3816    0.9815  -16.4439    1.0592  -16.3894    1.0215  -16.3990    0.9627  -16.3344    1.0339  -16.3560    1.0837   -0.0000  -48.0000
  6.920  -16.3006    0.9716  -16.3623    1.0487  -16.3084    1.0115  -16.3179    0.9529  -16.2538    1.0238  -16.2751    1.0729   -0.0000  -48.0000
  6.930  -16.2202    0.9619  -16.2815    1.0383  -16.2280    1.0018  -16.2376    0.9433  -16.1739    1.0139  -16.1950    1.0622   -0.0000  -48.0000
  6.940  -16.1405    0.9523  -16.2013    1.0282  -16.1484    0.9921  -16.1580    0.9339  -16.0946    1.0041  -16.1155    1.0518   -0.0000  -48.0000
  6.950  -16.0615    0.9429  -16.1219    1.0182  -16.0694    0.9827  -16.0790    0.9246  -16.0161    0.9945  -16.0367    1.0416   -0.0000  -48.0000
  6.960  -15.9832    0.9336  -16.0432    1.0083  -15.9911    0.9734  -16.0008    0.9155  -15.9382    0.9851  -15.9586    1.0315   -0.0000  -48.0000
  6.970  -15.9056    0.9245  -15.9651    0.9987  -15.9135    0.9643  -15.9232    0.9066  -15.8610    0.9758  -15.8812    1.0216   -0.0000  -48.0000
  6.980  -15.8286    0.9156  -15.8877    0.9892  -15.8365    0.9553  -15.8462    0.8978  -15.7844    0.9666  -15.8044    1.0118   -0.0000  -48.0000
  6.990  -15.7522    0.9068  -15.8109    0.9799  -15.7602    0.9464  -15.7699    0.8891  -15.7085    0.9576  -15.7283    1.0022   -0.0000  -48.0000
  7.000  -15.6765    0.8981  -15.7348    0.9707  -15.6845    0.9377  -15.6942    0.8806  -15.6332    0.9488  -15.6528    0.9928   -0.0000  -48.0000
  7.010  -15.6014    0.8896  -15.6593    0.9616  -15.6095    0.9291  -15.6192    0.8723  -15.5585    0.9401  -15.5779    0.9835   -0.0000  -48.0000
  7.020  -15.5270    0.8813  -15.5845    0.9527  -15.5350    0.9207  -15.5447    0.8640  -15.4845    0.9315  -15.5037    0.9744   -0.0000  -48.0000
  7.030  -15.4531    0.8730  -15.5103    0.9440  -15.4612    0.9124  -15.4709    0.8559  -15.4110    0.9231  -15.4300    0.9654   -0.0000  -48.0000
  7.040  -15.3799    0.8649  -15.4366    0.9354  -15.3880    0.9042  -15.3977    0.8479  -15.3382    0.9148  -15.3570    0.9566   -0.0000  -48.0000
  7.050  -15.3072    0.8570  -15.3636    0.9269  -15.3154    0.8962  -15.3251    0.8401  -15.2659    0.9066  -15.2845    0.9479   -0.0000  -48.0000
  7.060  -15.2352    0.8491  -15.2912    0.9185  -15.2433    0.8883  -15.2530    0.8324  -15.1942    0.8986  -15.2126    0.9393   -0.0000  -48.0000
  7.070  -15.1637    0.8414  -15.2194    0.9103  -15.1718    0.8805  -15.1815    0.8248  -15.1231    0.8906  -15.1413    0.9309   -0.0000  -48.0000
  7.080  -15.0928    0.8338  -15.1481    0.9022  -15.1009    0.8728  -15.1106    0.8173  -15.0525    0.8828  -15.0706    0.9226   -0.0000  -48.0000
  7.090  -15.0224    0.8263  -15.0774    0.8943  -15.0306    0.8652  -15.0403    0.8099  -14.9825    0.8752  -15.0004    0.9144   -0.0000  -48.0000
  7.100  -14.9526    0.8189  -15.0073    0.8864  -14.9608    0.8578  -14.9705    0.8026  -14.9131    0.8676  -14.9308    0.9064   -0.0000  -48.0000
  7.110  -14.8834    0.8117  -14.9377    0.8787  -14.8916    0.8504  -14.9013    0.7955  -14.8442    0.8601  -14.8617    0.8985   -0.0000  -48.0000
  7.120  -14.8147    0.8045  -14.8686    0.8711  -14.8229    0.8432  -14.8326    0.7885  -14.7758    0.8528  -14.7932    0.8907   -0.0000  -48.0000
  7.130  -14.7465    0.7975  -14.8001    0.8636  -14.7547    0.8361  -14.7644    0.7815  -14.7080    0.8456  -14.7252    0.8830   -0.0000  -48.0000
  7.140  -14.6788    0.7906  -14.7322    0.8562  -14.6870    0.8291  -14.6967    0.7747  -14.6407    0.8384  -14.6577    0.8754   -0.0000  -48.0000
  7.150  -14.6117    0.7838  -14.6647    0.8489  -14.6199    0.8221  -14.6296    0.7680  -14.5739    0.8314  -14.5907    0.8679   -0.0000  -48.0000
  7.160  -14.5450    0.7770  -14.5978    0.8417  -14.5533    0.8153  -14.5630    0.7613  -14.5076    0.8245  -14.5243    0.8606   -0.0000  -48.0000
  7.170  -14.4789    0.7704  -14.5314    0.8347  -14.4872    0.8086  -14.4968    0.7548  -14.4418    0.8177  -14.4583    0.8534   -0.0000  -48.0000
  7.180  -14.4133    0.7639  -14.4655    0.8277  -14.4215    0.8020  -14.4312    0.7484  -14.3765    0.8109  -14.3928    0.8462   -0.0000  -48.0000
  7.190  -14.3482    0.7574  -14.4001    0.8208  -14.3564    0.7954  -14.3661    0.7420  -14.3117    0.8043  -14.3279    0.8392   -0.0000  -48.0000
  7.200  -14.2835    0.7511  -14.3351    0.8141  -14.2918    0.7890  -14.3014    0.7358  -14.2473    0.7978  -14.2634    0.8322   -0.0000  -48.0000
  7.210  -14.2193    0.7448  -14.2707    0.8074  -14.2276    0.7826  -14.2372    0.7296  -14.1835    0.7913  -14.1994    0.8254   -0.0000  -48.0000
  7.220  -14.1556    0.7387  -14.2067    0.8008  -14.1639    0.7764  -14.1735    0.7236  -14.1201    0.7850  -14.1358    0.8187   -0.0000  -48.0000
  7.230  -14.0924    0.7326  -14.1432    0.7943  -14.1007    0.7702  -14.1103    0.7176  -14.0571    0.7787  -14.0728    0.8120   -0.0000  -48.0000
  7.240  -14.0296    0.7266  -14.0802    0.7880  -14.0379    0.7641  -14.0475    0.7117  -13.9947    0.7725  -14.0102    0.8055   -0.0000  -48.0000
  7.250  -13.9673    0.7207  -14.0176    0.7816  -13.9756    0.7581  -13.9852    0.7058  -13.9327    0.7664  -13.9480    0.7990   -0.0000  -48.0000
  7.260  -13.9055    0.7149  -13.9555    0.7754  -13.9137    0.7522  -13.9233    0.7001  -13.8711    0.7604  -13.8863    0.7926   -0.0000  -48.0000
  7.270  -13.8440    0.7092  -13.8939    0.7693  -13.8523    0.7463  -13.8619    0.6944  -13.8100    0.7545  -13.8250    0.7863   -0.0000  -48.0000
  7.280  -13.7830    0.7035  -13.8327    0.7632  -13.7913    0.7406  -13.8009    0.6889  -13.7493    0.7486  -13.7642    0.7802   -0.0000  -48.0000
  7.290  -13.7225    0.6979  -13.7719    0.7573  -13.7308    0.7349  -13.7403    0.6833  -13.6890    0.7429  -13.7038    0.7740   -0.0000  -48.0000
  7.300  -13.6624    0.6924  -13.7115    0.7514  -13.6706    0.7293  -13.6802    0.6779  -13.6292    0.7372  -13.6438    0.7680   -0.0000  -48.0000
  7.310  -13.6027    0.6870  -13.6516    0.7456  -13.6109    0.7237  -13.6205    0.6726  -13.5697    0.7316  -13.5843    0.7621   -0.0000  -48.0000
  7.320  -13.5434    0.6816  -13.5921    0.7398  -13.5517    0.7182  -13.5612    0.6673  -13.5107    0.7260  -13.5251    0.7562   -0.0000  -48.0000
  7.330  -13.4845    0.6763  -13.5330    0.7342  -13.4928    0.7128  -13.5023    0.6620  -13.4521    0.7205  -13.4664    0.7504   -0.0000  -48.0000
  7.340  -13.4261    0.6711  -13.4744    0.7286  -13.4343    0.7075  -13.4438    0.6569  -13.3939    0.7151  -13.4081    0.7447   -0.0000  -48.0000
  7.350  -13.3680    0.6660  -13.4161    0.7231  -13.3763    0.7023  -13.3857    0.6518  -13.3361    0.7098  -13.3502    0.7390   -0.0000  -48.0000
  7.360  -13.3103    0.6609  -13.3582    0.7176  -13.3186    0.6971  -13.3280    0.6468  -13.2787    0.7045  -13.2926    0.7335   -0.0000  -48.0000
  7.370  -13.2531    0.6559  -13.3008    0.7123  -13.2613    0.6920  -13.2708    0.6419  -13.2217    0.6994  -13.2355    0.7280   -0.0000  -48.0000
  7.380  -13.1962    0.6510  -13.2437    0.7070  -13.2044    0.6869  -13.2139    0.6370  -13.1651    0.6942  -13.1788    0.7226   -0.0000  -48.0000
  7.390  -13.1397    0.6461  -13.1870    0.7017  -13.1479    0.6819  -13.1573    0.6321  -13.1089    0.6892  -13.1224    0.7172   -0.0000  -48.0000
  7.400  -13.0836    0.6413  -13.1307    0.6966  -13.0918    0.6770  -13.1012    0.6274  -13.0530    0.6842  -13.0664    0.7119   -0.0000  -48.0000
  7.410  -13.0278    0.6365  -13.0748    0.6915  -13.0361    0.6721  -13.0454    0.6227  -12.9975    0.6792  -13.0108    0.7067   -0.0000  -48.0000
  7.420  -12.9725    0.6318  -13.0193    0.6864  -12.9807    0.6673  -12.9900    0.6181  -12.9424    0.6744  -12.9556    0.7016   -0.0000  -48.0000
  7.430  -12.9174    0.6272  -12.9641    0.6815  -12.9257    0.6625  -12.9350    0.6135  -12.8876    0.6695  -12.9007    0.6965   -0.0000  -48.0000
  7.440  -12.8628    0.6226  -12.9093    0.6766  -12.8710    0.6579  -12.8804    0.6090  -12.8332    0.6648  -12.8462    0.6915   -0.0000  -48.0000
  7.450  -12.8085    0.6181  -12.8549    0.6717  -12.8167    0.6532  -12.8261    0.6045  -12.7792    0.6601  -12.7921    0.6865   -0.0000  -48.0000
  7.460  -12.7546    0.6136  -12.8008    0.6669  -12.7628    0.6486  -12.7721    0.6001  -12.7255    0.6555  -12.7383    0.6816   -0.0000  -48.0000
  7.470  -12.7010    0.6092  -12.7471    0.6622  -12.7092    0.6441  -12.7185    0.5957  -12.6722    0.6509  -12.6848    0.6768   -0.0000  -48.0000
  7.480  -12.6478    0.6049  -12.6937    0.6575  -12.6560    0.6397  -12.6652    0.5914  -12.6192    0.6464  -12.6317    0.6720   -0.0000  -48.0000
  7.490  -12.5949    0.6006  -12.6406    0.6529  -12.6031    0.6353  -12.6123    0.5872  -12.5665    0.6419  -12.5789    0.6673   -0.0000  -48.0000
  7.500  -12.5423    0.5963  -12.5879    0.6483  -12.5505    0.6309  -12.5597    0.5830  -12.5142    0.6375  -12.5265    0.6626   -0.0000  -48.0000
  7.510  -12.4901    0.5921  -12.5356    0.6438  -12.4983    0.6266  -12.5075    0.5788  -12.4622    0.6331  -12.4744    0.6580   -0.0000  -48.0000
  7.520  -12.4382    0.5880  -12.4836    0.6394  -12.4464    0.6223  -12.4556    0.5747  -12.4105    0.6288  -12.4227    0.6535   -0.0000  -48.0000
  7.530  -12.3866    0.5839  -12.4319    0.6350  -12.3948    0.6181  -12.4040    0.5707  -12.3592    0.6246  -12.3712    0.6490   -0.0000  -48.0000
  7.540  -12.3354    0.5799  -12.3805    0.6306  -12.3435    0.6140  -12.3527    0.5667  -12.3082    0.6204  -12.3201    0.6446   -0.0000  -48.0000
  7.550  -12.2845    0.5759  -12.3295    0.6264  -12.2926    0.6099  -12.3018    0.5628  -12.2575    0.6162  -12.2693    0.6402   -0.0000  -48.0000
  7.560  -12.2339    0.5720  -12.2788    0.6221  -12.2420    0.6058  -12.2512    0.5589  -12.2071    0.6121  -12.2189    0.6359   -0.0000  -48.0000
  7.570  -12.1836    0.5681  -12.2284    0.6179  -12.1917    0.6018  -12.2009    0.5550  -12.1570    0.6081  -12.1687    0.6316   -0.0000  -48.0000
  7.580  -12.1336    0.5642  -12.1783    0.6138  -12.1417    0.5979  -12.1508    0.5512  -12.1073    0.6040  -12.1188    0.6273   -0.0000  -48.0000
  7.590  -12.0839    0.5604  -12.1285    0.6097  -12.0920    0.5939  -12.1011    0.5474  -12.0578    0.6001  -12.0693    0.6232   -0.0000  -48.0000
  7.600  -12.0345    0.5567  -12.0790    0.6056  -12.0426    0.5901  -12.0518    0.5437  -12.0086    0.5962  -12.0200    0.6190   -0.0000  -48.0000
  7.610  -11.9855    0.5530  -12.0299    0.6016  -11.9935    0.5862  -12.0027    0.5400  -11.9598    0.5923  -11.9711    0.6150   -0.0000  -48.0000
  7.620  -11.9367    0.5493  -11.9810    0.5977  -11.9447    0.5825  -11.9538    0.5364  -11.9112    0.5885  -11.9224    0.6109   -0.0000  -48.0000
  7.630  -11.8882    0.5457  -11.9324    0.5938  -11.8962    0.5787  -11.9053    0.5328  -11.8629    0.5847  -11.8741    0.6070   -0.0000  -48.0000
  7.640  -11.8400    0.5421  -11.8841    0.5899  -11.8480    0.5750  -11.8571    0.5293  -11.8149    0.5810  -11.8260    0.6030   -0.0000  -48.0000
  7.650  -11.7921    0.5386  -11.8362    0.5861  -11.8001    0.5714  -11.8092    0.5257  -11.7672    0.5773  -11.7782    0.5991   -0.0000  -48.0000
  7.660  -11.7444    0.5351  -11.7885    0.5823  -11.7524    0.5678  -11.7615    0.5223  -11.7198    0.5736  -11.7307    0.5953   -0.0000  -48.0000
  7.670  -11.6971    0.5316  -11.7410    0.5786  -11.7051    0.5642  -11.7142    0.5188  -11.6727    0.5700  -11.6835    0.5915   -0.0000  -48.0000
  7.680  -11.6500    0.5282  -11.6939    0.5749  -11.6580    0.5607  -11.6671    0.5155  -11.6258    0.5665  -11.6365    0.5877   -0.0000  -48.0000
  7.690  -11.6032    0.5248  -11.6470    0.5713  -11.6112    0.5572  -11.6202    0.5121  -11.5792    0.5629  -11.5898    0.5840   -0.0000  -48.0000
  7.700  -11.5567    0.5215  -11.6005    0.5676  -11.5646    0.5537  -11.5737    0.5088  -11.5329    0.5594  -11.5434    0.5804   -0.0000  -48.0000
  7.710  -11.5104    0.5182  -11.5541    0.5641  -11.5184    0.5503  -11.5274    0.5055  -11.4868    0.5560  -11.4973    0.5767   -0.0000  -48.0000
  7.720  -11.4644    0.5150  -11.5081    0.5606  -11.4723    0.5470  -11.4814    0.5023  -11.4410    0.5526  -11.4514    0.5731   -0.0000  -48.0000
  7.730  -11.4187    0.5117  -11.4623    0.5571  -11.4266    0.5436  -11.4356    0.4991  -11.3955    0.5492  -11.4058    0.5696   -0.0000  -48.0000
  7.740  -11.3732    0.5086  -11.4168    0.5536  -11.3811    0.5403  -11.3901    0.4959  -11.3502    0.5459  -11.3604    0.5661   -0.0000  -48.0000
  7.750  -11.3280    0.5054  -11.3716    0.5502  -11.3359    0.5371  -11.3449    0.4928  -11.3052    0.5426  -11.3153    0.5626   -0.0000  -48.0000
  7.760  -11.2830    0.5023  -11.3266    0.5468  -11.2909    0.5338  -11.2999    0.4897  -11.2604    0.5393  -11.2705    0.5592   -0.0000  -48.0000
  7.770  -11.2383    0.4992  -11.2818    0.5435  -11.2462    0.5307  -11.2552    0.4866  -11.2159    0.5361  -11.2259    0.5558   -0.0000  -48.0000
  7.780  -11.1938    0.4962  -11.2373    0.5402  -11.2017    0.5275  -11.2107    0.4836  -11.1716    0.5329  -11.1816    0.5525   -0.0000  -48.0000
  7.790  -11.1496    0.4932  -11.1931    0.5369  -11.1574    0.5244  -11.1665    0.4806  -11.1276    0.5298  -11.1375    0.5492   -0.0000  -48.0000
  7.800  -11.1056    0.4902  -11.1491    0.5337  -11.1134    0.5213  -11.1225    0.4776  -11.0838    0.5267  -11.0936    0.5459   -0.0000  -48.0000
  7.810  -11.0619    0.4873  -11.1054    0.5305  -11.0697    0.5183  -11.0787    0.4747  -11.0403    0.5236  -11.0500    0.5427   -0.0000  -48.0000
  7.820  -11.0184    0.4844  -11.0619    0.5274  -11.0262    0.5152  -11.0352    0.4718  -10.9970    0.5206  -11.0066    0.5395   -0.0000  -48.0000
  7.830  -10.9751    0.4815  -11.0186    0.5243  -10.9829    0.5123  -10.9919    0.4690  -10.9539    0.5176  -10.9635    0.5363   -0.0000  -48.0000
  7.840  -10.9321    0.4787  -10.9756    0.5212  -10.9398    0.5093  -10.9489    0.4661  -10.9111    0.5146  -10.9206    0.5332   -0.0000  -48.0000
  7.850  -10.8893    0.4759  -10.9328    0.5181  -10.8970    0.5064  -10.9060    0.4633  -10.8685    0.5116  -10.8779    0.5301   -0.0000  -48.0000
  7.860  -10.8467    0.4731  -10.8902    0.5151  -10.8544    0.5035  -10.8634    0.4606  -10.8261    0.5087  -10.8354    0.5270   -0.0000  -48.0000
  7.870  -10.8044    0.4704  -10.8479    0.5121  -10.8121    0.5007  -10.8211    0.4578  -10.7839    0.5059  -10.7932    0.5240   -0.0000  -48.0000
  7.880  -10.7622    0.4677  -10.8058    0.5092  -10.7699    0.4979  -10.7789    0.4551  -10.7420    0.5030  -10.7512    0.5210   -0.0000  -48.0000
  7.890  -10.7203    0.4650  -10.7639    0.5062  -10.7280    0.4951  -10.7370    0.4524  -10.7002    0.5002  -10.7094    0.5181   -0.0000  -48.0000
  7.900  -10.6786    0.4624  -10.7223    0.5033  -10.6863    0.4923  -10.6953    0.4498  -10.6587    0.4974  -10.6679    0.5151   -0.0000  -48.0000
  7.910  -10.6371    0.4597  -10.6808    0.5005  -10.6448    0.4896  -10.6538    0.4471  -10.6175    0.4947  -10.6265    0.5123   -0.0000  -48.0000
  7.920  -10.5959    0.4572  -10.6396    0.4977  -10.6035    0.4869  -10.6125    0.4446  -10.5764    0.4920  -10.5854    0.5094   -0.0000  -48.0000
  7.930  -10.5548    0.4546  -10.5986    0.4949  -10.5624    0.4842  -10.5715    0.4420  -10.5355    0.4893  -10.5445    0.5066   -0.0000  -48.0000
  7.940  -10.5140    0.4521  -10.5578    0.4921  -10.5216    0.4816  -10.5306    0.4394  -10.4949    0.4866  -10.5037    0.5038   -0.0000  -48.0000
  7.950  -10.4733    0.4496  -10.5172    0.4893  -10.4809    0.4790  -10.4900    0.4369  -10.4544    0.4840  -10.4632    0.5010   -0.0000  -48.0000
  7.960  -10.4329    0.4471  -10.4769    0.4866  -10.4404    0.4764  -10.4495    0.4345  -10.4142    0.4814  -10.4229    0.4983   -0.0000  -48.0000
  7.970  -10.3927    0.4447  -10.4367    0.4840  -10.4002    0.4738  -10.4093    0.4320  -10.3741    0.4788  -10.3828    0.4956   -0.0000  -48.0000
  7.980  -10.3526    0.4423  -10.3967    0.4813  -10.3601    0.4713  -10.3692    0.4296  -10.3343    0.4763  -10.3429    0.4930   -0.0000  -48.0000
  7.990  -10.3128    0.4399  -10.3570    0.4787  -10.3203    0.4688  -10.3294    0.4272  -10.2946    0.4738  -10.3032    0.4903   -0.0000  -48.0000
  8.000  -10.2731    0.4375  -10.3174    0.4761  -10.2806    0.4664  -10.2897    0.4248  -10.2551    0.4713  -10.2637    0.4877   -0.0000  -48.0000
  8.010  -10.2337    0.4352  -10.2780    0.4735  -10.2411    0.4639  -10.2503    0.4224  -10.2159    0.4689  -10.2243    0.4851   -0.0000  -48.0000
  8.020  -10.1944    0.4329  -10.2389    0.4710  -10.2018    0.4615  -10.2110    0.4201  -10.1768    0.4665  -10.1852    0.4826   -0.0000  -48.0000
  8.030  -10.1553    0.4306  -10.1999    0.4685  -10.1627    0.4592  -10.1719    0.4178  -10.1379    0.4641  -10.1463    0.4801   -0.0000  -48.0000
  8.040  -10.1164    0.4284  -10.1611    0.4660  -10.1238    0.4568  -10.1330    0.4155  -10.0992    0.4617  -10.1075    0.4776   -0.0000  -48.0000
  8.050  -10.0777    0.4262  -10.1225    0.4636  -10.0851    0.4545  -10.0943    0.4133  -10.0607    0.4594  -10.0689    0.4751   -0.0000  -48.0000
  8.060  -10.0391    0.4240  -10.0841    0.4611  -10.0465    0.4522  -10.0557    0.4111  -10.0223    0.4571  -10.0305    0.4727   -0.0000  -48.0000
  8.070  -10.0008    0.4218  -10.0459    0.4587  -10.0082    0.4499  -10.0174    0.4089   -9.9842    0.4548   -9.9923    0.4703   -0.0000  -48.0000
  8.080   -9.9626    0.4197  -10.0078    0.4564   -9.9700    0.4477   -9.9792    0.4067   -9.9462    0.4525   -9.9543    0.4680   -0.0000  -48.0000
  8.090   -9.9246    0.4176   -9.9700    0.4540   -9.9319    0.4454   -9.9412    0.4046   -9.9084    0.4503   -9.9164    0.4656   -0.0000  -48.0000
  8.100   -9.8868    0.4155   -9.9323    0.4517   -9.8941    0.4432   -9.9034    0.4024   -9.8707    0.4481   -9.8787    0.4633   -0.0000  -48.0000
  8.110   -9.8491    0.4134   -9.8948    0.4494   -9.8564    0.4411   -9.8657    0.4003   -9.8333    0.4459   -9.8412    0.4610   -0.0000  -48.0000
  8.120   -9.8116    0.4114   -9.8575    0.4471   -9.8189    0.4389   -9.8282    0.3982   -9.7959    0.4438   -9.8038    0.4588   -0.0000  -48.0000
  8.130   -9.7742    0.4094   -9.8203    0.4449   -9.7815    0.4368   -9.7909    0.3962   -9.7588    0.4417   -9.7666    0.4565   -0.0000  -48.0000
  8.140   -9.7371    0.4074   -9.7833    0.4427   -9.7443    0.4347   -9.7537    0.3942   -9.7218    0.4396   -9.7296    0.4544   -0.0000  -48.0000
  8.150   -9.7001    0.4054   -9.7465    0.4405   -9.7073    0.4327   -9.7167    0.3922   -9.6850    0.4375   -9.6928    0.4522   -0.0000  -48.0000
  8.160   -9.6632    0.4035   -9.7098    0.4383   -9.6704    0.4306   -9.6798    0.3902   -9.6484    0.4355   -9.6561    0.4500   -0.0000  -48.0000
  8.170   -9.6265    0.4016   -9.6733    0.4362   -9.6337    0.4286   -9.6431    0.3882   -9.6119    0.4335   -9.6195    0.4479   -0.0000  -48.0000
  8.180   -9.5899    0.3997   -9.6370    0.4340   -9.5971    0.4267   -9.6066    0.3863   -9.5755    0.4315   -9.5831    0.4458   -0.0000  -48.0000
  8.190   -9.5535    0.3979   -9.6008    0.4320   -9.5607    0.4247   -9.5702    0.3844   -9.5393    0.4295   -9.5469    0.4438   -0.0000  -48.0000
  8.200   -9.5173    0.3960   -9.5648    0.4299   -9.5244    0.4228   -9.5340    0.3825   -9.5033    0.4276   -9.5108    0.4417   -0.0000  -48.0000
  8.210   -9.4812    0.3942   -9.5290    0.4278   -9.4883    0.4209   -9.4979    0.3806   -9.4674    0.4257   -9.4749    0.4397   -0.0000  -48.0000
  8.220   -9.4452    0.3925   -9.4932    0.4258   -9.4523    0.4190   -9.4619    0.3787   -9.4316    0.4238   -9.4391    0.4378   -0.0000  -48.0000
  8.230   -9.4094    0.3907   -9.4577    0.4238   -9.4165    0.4171   -9.4261    0.3769   -9.3960    0.4219   -9.4034    0.4358   -0.0000  -48.0000
  8.240   -9.3737    0.3890   -9.4223    0.4219   -9.3808    0.4153   -9.3905    0.3751   -9.3606    0.4201   -9.3679    0.4339   -0.0000  -48.0000
  8.250   -9.3382    0.3873   -9.3870    0.4199   -9.3452    0.4135   -9.3550    0.3733   -9.3252    0.4183   -9.3325    0.4320   -0.0000  -48.0000
  8.260   -9.3028    0.3856   -9.3519    0.4180   -9.3098    0.4117   -9.3196    0.3716   -9.2900    0.4165   -9.2973    0.4301   -0.0000  -48.0000
  8.270   -9.2675    0.3840   -9.3170    0.4161   -9.2745    0.4100   -9.2843    0.3699   -9.2550    0.4148   -9.2622    0.4283   -0.0000  -48.0000
  8.280   -9.2324    0.3824   -9.2821    0.4142   -9.2393    0.4082   -9.2492    0.3681   -9.2201    0.4131   -9.2272    0.4265   -0.0000  -48.0000
  8.290   -9.1973    0.3808   -9.2474    0.4124   -9.2043    0.4065   -9.2142    0.3665   -9.1853    0.4114   -9.1924    0.4247   -0.0000  -48.0000
  8.300   -9.1624    0.3792   -9.2129    0.4105   -9.1694    0.4048   -9.1794    0.3648   -9.1506    0.4097   -9.1577    0.4230   -0.0000  -48.0000
  8.310   -9.1277    0.3776   -9.1785    0.4087   -9.1346    0.4032   -9.1446    0.3631   -9.1161    0.4081   -9.1231    0.4212   -0.0000  -48.0000
  8.320   -9.0930    0.3761   -9.1442    0.4070   -9.0999    0.4016   -9.1100    0.3615   -9.0817    0.4065   -9.0887    0.4195   -0.0000  -48.0000
  8.330   -9.0585    0.3746   -9.1100    0.4052   -9.0653    0.4000   -9.0755    0.3599   -9.0474    0.4049   -9.0543    0.4179   -0.0000  -48.0000
  8.340   -9.0241    0.3732   -9.0760    0.4035   -9.0309    0.3984   -9.0411    0.3583   -9.0132    0.4033   -9.0201    0.4162   -0.0000  -48.0000
  8.350   -8.9898    0.3717   -9.0421    0.4018   -8.9966    0.3969   -9.0069    0.3568   -8.9791    0.4018   -8.9860    0.4146   -0.0000  -48.0000
  8.360   -8.9556    0.3703   -9.0083    0.4001   -8.9624    0.3954   -8.9727    0.3553   -8.9452    0.4003   -8.9521    0.4130   -0.0000  -48.0000
  8.370   -8.9215    0.3689   -8.9747    0.3984   -8.9283    0.3939   -8.9387    0.3538   -8.9114    0.3988   -8.9182    0.4115   -0.0000  -48.0000
  8.380   -8.8875    0.3676   -8.9412    0.3968   -8.8943    0.3924   -8.9047    0.3523   -8.8776    0.3974   -8.8844    0.4100   -0.0000  -48.0000
  8.390   -8.8537    0.3663   -8.9078    0.3952   -8.8603    0.3910   -8.8709    0.3508   -8.8440    0.3960   -8.8508    0.4085   -0.0000  -48.0000
  8.400   -8.8199    0.3650   -8.8745    0.3936   -8.8265    0.3896   -8.8372    0.3494   -8.8105    0.3946   -8.8172    0.4070   -0.0000  -48.0000
  8.410   -8.7862    0.3637   -8.8413    0.3921   -8.7928    0.3882   -8.8035    0.3480   -8.7771    0.3933   -8.7838    0.4056   -0.0000  -48.0000
  8.420   -8.7526    0.3625   -8.8082    0.3905   -8.7592    0.3869   -8.7700    0.3466   -8.7438    0.3919   -8.7504    0.4042   -0.0000  -48.0000
  8.430   -8.7191    0.3613   -8.7752    0.3890   -8.7257    0.3856   -8.7366    0.3452   -8.7105    0.3906   -8.7171    0.4028   -0.0000  -48.0000
  8.440   -8.6857    0.3601   -8.7424    0.3876   -8.6923    0.3843   -8.7032    0.3439   -8.6774    0.3894   -8.6840    0.4015   -0.0000  -48.0000
  8.450   -8.6524    0.3589   -8.7096    0.3861   -8.6589    0.3830   -8.6699    0.3426   -8.6444    0.3882   -8.6509    0.4002   -0.0000  -48.0000
  8.460   -8.6191    0.3578   -8.6770    0.3847   -8.6256    0.3818   -8.6368    0.3413   -8.6114    0.3870   -8.6179    0.3989   -0.0000  -48.0000
  8.470   -8.5860    0.3567   -8.6444    0.3833   -8.5924    0.3806   -8.6037    0.3400   -8.5785    0.3858   -8.5850    0.3977   -0.0000  -48.0000
  8.480   -8.5529    0.3557   -8.6120    0.3819   -8.5593    0.3795   -8.5706    0.3388   -8.5458    0.3847   -8.5522    0.3965   -0.0000  -48.0000
  8.490   -8.5198    0.3547   -8.5796    0.3805   -8.5263    0.3783   -8.5377    0.3376   -8.5130    0.3836   -8.5194    0.3953   -0.0000  -48.0000
  8.500   -8.4869    0.3537   -8.5473    0.3792   -8.4933    0.3773   -8.5048    0.3364   -8.4804    0.3825   -8.4868    0.3942   -0.0000  -48.0000
  8.510   -8.4540    0.3528   -8.5152    0.3779   -8.4604    0.3762   -8.4720    0.3352   -8.4478    0.3815   -8.4542    0.3931   -0.0000  -48.0000
  8.520   -8.4212    0.3519   -8.4831    0.3767   -8.4275    0.3752   -8.4392    0.3341   -8.4154    0.3805   -8.4217    0.3920   -0.0000  -48.0000
  8.530   -8.3884    0.3510   -8.4511    0.3754   -8.3947    0.3742   -8.4066    0.3330   -8.3829    0.3796   -8.3892    0.3910   -0.0000  -48.0000
  8.540   -8.3557    0.3501   -8.4191    0.3742   -8.3620    0.3733   -8.3739    0.3319   -8.3505    0.3787   -8.3568    0.3900   -0.0000  -48.0000
  8.550   -8.3230    0.3494   -8.3873    0.3730   -8.3293    0.3723   -8.3413    0.3309   -8.3182    0.3778   -8.3244    0.3891   -0.0000  -48.0000
  8.560   -8.2904    0.3486   -8.3555    0.3719   -8.2966    0.3715   -8.3088    0.3299   -8.2860    0.3770   -8.2922    0.3882   -0.0000  -48.0000
  8.570   -8.2578    0.3479   -8.3238    0.3708   -8.2640    0.3706   -8.2763    0.3289   -8.2538    0.3762   -8.2599    0.3873   -0.0001  -48.0000
  8.580   -8.2253    0.3472   -8.2922    0.3697   -8.2314    0.3699   -8.2439    0.3279   -8.2216    0.3754   -8.2277    0.3865   -0.0001  -48.0000
  8.590   -8.1928    0.3466   -8.2606    0.3686   -8.1989    0.3691   -8.2115    0.3270   -8.1895    0.3747   -8.1956    0.3858   -0.0002  -48.0000
  8.600   -8.1603    0.3460   -8.2291    0.3676   -8.1664    0.3684   -8.1791    0.3261   -8.1574    0.3741   -8.1635    0.3850   -0.0003  -48.0000
  8.610   -8.1279    0.3455   -8.1976    0.3666   -8.1339    0.3678   -8.1467    0.3253   -8.1253    0.3735   -8.1314    0.3844   -0.0004  -48.0000
  8.620   -8.0954    0.3450   -8.1663    0.3656   -8.1014    0.3672   -8.1144    0.3245   -8.0933    0.3729   -8.0993    0.3838   -0.0006  -48.0000
  8.630   -8.0630    0.3445   -8.1349    0.3647   -8.0689    0.3666   -8.0821    0.3237   -8.0613    0.3724   -8.0673    0.3832   -0.0009  -48.0000
  8.640   -8.0306    0.3442   -8.1036    0.3638   -8.0365    0.3661   -8.0498    0.3229   -8.0294    0.3720   -8.0353    0.3827   -0.0013  -48.0000
  8.650   -7.9982    0.3438   -8.0724    0.3630   -8.0040    0.3656   -8.0175    0.3222   -7.9974    0.3716   -8.0033    0.3822   -0.0020  -48.0000
  8.660   -7.9657    0.3436   -8.0412    0.3621   -7.9715    0.3652   -7.9852    0.3216   -7.9654    0.3712   -7.9714    0.3818   -0.0029  -48.0000
  8.670   -7.9333    0.3434   -8.0100    0.3614   -7.9391    0.3649   -7.9529    0.3210   -7.9335    0.3709   -7.9394    0.3815   -0.0043  -48.0000
  8.680   -7.9009    0.3432   -7.9789    0.3606   -7.9066    0.3646   -7.9206    0.3204   -7.9016    0.3707   -7.9074    0.3812   -0.0062  -48.0000
  8.690   -7.8684    0.3431   -7.9478    0.3599   -7.8740    0.3644   -7.8883    0.3199   -7.8696    0.3706   -7.8754    0.3810   -0.0089  -48.0000
  8.700   -7.8359    0.3431   -7.9167    0.3593   -7.8415    0.3642   -7.8559    0.3194   -7.8376    0.3705   -7.8434    0.3808   -0.0128  -48.0000
  8.710   -7.8034    0.3431   -7.8857    0.3587   -7.8089    0.3642   -7.8235    0.3190   -7.8057    0.3704   -7.8114    0.3807   -0.0183  -48.0000
  8.720   -7.7708    0.3433   -7.8546    0.3581   -7.7763    0.3641   -7.7911    0.3186   -7.7736    0.3705   -7.7794    0.3807   -0.0259  -48.0000
  8.730   -7.7381    0.3435   -7.8236    0.3576   -7.7436    0.3642   -7.7586    0.3182   -7.7416    0.3706   -7.7473    0.3808   -0.0365  -48.0000
  8.740   -7.7055    0.3437   -7.7926    0.3571   -7.7108    0.3643   -7.7261    0.3180   -7.7095    0.3708   -7.7152    0.3809   -0.0511  -48.0001
  8.750   -7.6727    0.3441   -7.7616    0.3567   -7.6780    0.3646   -7.6935    0.3178   -7.6774    0.3711   -7.6831    0.3812   -0.0711  -48.0001
  8.760   -7.6399    0.3446   -7.7306    0.3563   -7.6450    0.3649   -7.6608    0.3176   -7.6452    0.3715   -7.6509    0.3815   -0.0986  -48.0001
  8.770   -7.6069    0.3451   -7.6995    0.3560   -7.6120    0.3653   -7.6281    0.3175   -7.6130    0.3719   -7.6186    0.3819   -0.1358  -48.0002
  8.780   -7.5739    0.3458   -7.6685    0.3557   -7.5789    0.3657   -7.5952    0.3175   -7.5806    0.3725   -7.5863    0.3824   -0.1862  -48.0002
  8.790   -7.5408    0.3465   -7.6374    0.3555   -7.5457    0.3663   -7.5623    0.3176   -7.5482    0.3732   -7.5538    0.3830   -0.2539  -48.0003
  8.800   -7.5075    0.3474   -7.6063    0.3554   -7.5124    0.3670   -7.5292    0.3177   -7.5158    0.3740   -7.5213    0.3837   -0.3444  -48.0005
  8.810   -7.4741    0.3484   -7.5752    0.3553   -7.4789    0.3678   -7.4960    0.3179   -7.4832    0.3748   -7.4887    0.3846   -0.4648  -48.0006
  8.820   -7.4406    0.3495   -7.5440    0.3553   -7.4453    0.3688   -7.4627    0.3182   -7.4505    0.3759   -7.4560    0.3855   -0.6239  -48.0009
  8.830   -7.4069    0.3507   -7.5128    0.3553   -7.4115    0.3698   -7.4292    0.3186   -7.4177    0.3770   -7.4232    0.3866   -0.8333  -48.0012
  8.840   -7.3731    0.3521   -7.4815    0.3555   -7.3775    0.3710   -7.3956    0.3191   -7.3847    0.3783   -7.3902    0.3878   -1.1071  -48.0016
  8.850   -7.3390    0.3536   -7.4502    0.3557   -7.3433    0.3724   -7.3617    0.3197   -7.3516    0.3797   -7.3571    0.3892   -1.4631  -48.0021
  8.860   -7.3048    0.3553   -7.4188    0.3560   -7.3089    0.3739   -7.3277    0.3204   -7.3183    0.3813   -7.3238    0.3907   -1.9233  -48.0028
  8.870   -7.2703    0.3572   -7.3873    0.3563   -7.2743    0.3755   -7.2935    0.3212   -7.2849    0.3830   -7.2904    0.3924   -2.5145  -48.0037
  8.880   -7.2356    0.3592   -7.3557    0.3568   -7.2395    0.3773   -7.2590    0.3221   -7.2513    0.3849   -7.2567    0.3943   -3.2692  -48.0049
  8.890   -7.2007    0.3615   -7.3241    0.3574   -7.2044    0.3794   -7.2243    0.3232   -7.2175    0.3870   -7.2229    0.3963   -4.2262  -48.0065
  8.900   -7.1655    0.3640   -7.2923    0.3580   -7.1690    0.3816   -7.1893    0.3244   -7.1835    0.3893   -7.1889    0.3986   -5.4316  -48.0085
  8.910   -7.1299    0.3666   -7.2604    0.3588   -7.1332    0.3840   -7.1540    0.3257   -7.1492    0.3918   -7.1546    0.4011   -6.9392  -48.0110
  8.920   -7.0941    0.3696   -7.2283    0.3596   -7.0972    0.3867   -7.1184    0.3273   -7.1147    0.3946   -7.1200    0.4038   -8.8110  -48.0143
  8.930   -7.0579    0.3728   -7.1961    0.3606   -7.0608    0.3896   -7.0824    0.3290   -7.0799    0.3975   -7.0852    0.4067  -11.1175  -48.0184
  8.940   -7.0214    0.3763   -7.1638    0.3617   -7.0240    0.3928   -7.0461    0.3309   -7.0448    0.4008   -7.0501    0.4099  -13.9377  -48.0235
  8.950   -6.9844    0.3800   -7.1313    0.3630   -6.9868    0.3963   -7.0093    0.3330   -7.0094    0.4043   -7.0147    0.4134  -17.3581  -48.0299
  8.960   -6.9471    0.3842   -7.0986    0.3644   -6.9491    0.4002   -6.9722    0.3353   -6.9736    0.4082   -6.9789    0.4172  -21.4723  -48.0378
  8.970   -6.9092    0.3887   -7.0657    0.3659   -6.9110    0.4043   -6.9345    0.3379   -6.9375    0.4124   -6.9428    0.4214  -26.3791  -48.0475
  8.980   -6.8709    0.3935   -7.0326    0.3676   -6.8723    0.4089   -6.8964    0.3408   -6.9010    0.4169   -6.9063    0.4259  -32.1801  -48.0593
  8.990   -6.8321    0.3988   -6.9993    0.3695   -6.8330    0.4138   -6.8577    0.3439   -6.8640    0.4219   -6.8693    0.4308  -38.9771  -48.0736
  9.000   -6.7926    0.4046   -6.9657    0.3715   -6.7932    0.4192   -6.8184    0.3474   -6.8267    0.4273   -6.8319    0.4361  -46.8685  -48.0908
  9.010   -6.7526    0.4109   -6.9318    0.3738   -6.7527    0.4252   -6.7785    0.3512   -6.7888    0.4331   -6.7941    0.4419  -55.9455  -48.1114
  9.020   -6.7119    0.4178   -6.8977    0.3763   -6.7115    0.4316   -6.7379    0.3554   -6.7504    0.4395   -6.7557    0.4482  -66.2876  -48.1357
  9.030   -6.6706    0.4253   -6.8632    0.3789   -6.6695    0.4386   -6.6965    0.3600   -6.7115    0.4464   -6.7167    0.4551  -77.9582  -48.1644
  9.040   -6.6284    0.4335   -6.8284    0.3819   -6.6268    0.4464   -6.6544    0.3651   -6.6719    0.4539   -6.6772    0.4626  -91.0003  -48.1978
  9.050   -6.5855    0.4424   -6.7933    0.3851   -6.5831    0.4548   -6.6113    0.3707   -6.6318    0.4621   -6.6370    0.4708 -105.4326  -48.2366
  9.060   -6.5416    0.4521   -6.7577    0.3885   -6.5385    0.4640   -6.5673    0.3769   -6.5909    0.4711   -6.5961    0.4797 -121.2467  -48.2811
  9.070   -6.4969    0.4628   -6.7218    0.3923   -6.4928    0.4742   -6.5223    0.3837   -6.5493    0.4809   -6.5545    0.4894 -138.4050  -48.3320
  9.080   -6.4511    0.4745   -6.6854    0.3964   -6.4461    0.4853   -6.4761    0.3913   -6.5069    0.4916   -6.5122    0.5001 -156.8405  -48.3896
  9.090   -6.4043    0.4874   -6.6485    0.4009   -6.3981    0.4976   -6.4287    0.3997   -6.4638    0.5033   -6.4690    0.5117 -176.4582  -48.4545
  9.100   -6.3563    0.5015   -6.6111    0.4058   -6.3488    0.5111   -6.3800    0.4090   -6.4197    0.5161   -6.4249    0.5245 -197.1387  -48.5269
  9.110   -6.3070    0.5171   -6.5731    0.4111   -6.2981    0.5261   -6.3299    0.4193   -6.3746    0.5302   -6.3799    0.5386 -218.7444  -48.6073
  9.120   -6.2565    0.5344   -6.5346    0.4168   -6.2459    0.5426   -6.2782    0.4308   -6.3286    0.5457   -6.3338    0.5540 -241.1265  -48.6959
  9.130   -6.2045    0.5534   -6.4954    0.4231   -6.1920    0.5610   -6.2247    0.4436   -6.2815    0.5627   -6.2868    0.5710 -264.1360  -48.7930
  9.140   -6.1510    0.5745   -6.4555    0.4299   -6.1364    0.5814   -6.1694    0.4579   -6.2333    0.5815   -6.2386    0.5898 -287.6348  -48.8987
  9.150   -6.0959    0.5979   -6.4149    0.4374   -6.0788    0.6042   -6.1120    0.4740   -6.1839    0.6024   -6.1892    0.6106 -311.5096  -49.0132
  9.160   -6.0391    0.6241   -6.3735    0.4455   -6.0192    0.6297   -6.0524    0.4921   -6.1333    0.6254   -6.1385    0.6337 -335.6855  -49.1365
  9.170   -5.9805    0.6532   -6.3313    0.4543   -5.9573    0.6583   -5.9903    0.5125   -6.0814    0.6511   -6.0867    0.6593 -360.1413  -49.2689
  9.180   -5.9200    0.6859   -6.2881    0.4640   -5.8930    0.6905   -5.9255    0.5356   -6.0282    0.6796   -6.0334    0.6878 -384.9235  -49.4104
  9.190   -5.8575    0.7226   -6.2440    0.4745   -5.8262    0.7269   -5.8578    0.5619   -5.9736    0.7115   -5.9789    0.7196 -410.1591  -49.5611
  9.200   -5.7931    0.7639   -6.1987    0.4861   -5.7567    0.7681   -5.7869    0.5919   -5.9178    0.7472   -5.9231    0.7553 -436.0664  -49.7213
  9.210   -5.7267    0.8105   -6.1524    0.4988   -5.6843    0.8151   -5.7125    0.6264   -5.8607    0.7873   -5.8660    0.7953 -462.9614  -49.8915
  9.220   -5.6584    0.8634   -6.1047    0.5127   -5.6091    0.8687   -5.6344    0.6660   -5.8024    0.8323   -5.8078    0.8404 -491.2599  -50.0720
  9.230   -5.5883    0.9234   -6.0557    0.5280   -5.5309    0.9304   -5.5523    0.7120   -5.7433    0.8832   -5.7487    0.8912 -521.4717  -50.2636
  9.240   -5.5167    0.9919   -6.0053    0.5449   -5.4499    1.0014   -5.4660    0.7654   -5.6835    0.9406   -5.6890    0.9486 -554.1855  -50.4673
  9.250   -5.4442    1.0701   -5.9532    0.5635   -5.3664    1.0837   -5.3753    0.8280   -5.6237    1.0058   -5.6292    1.0137 -590.0434  -50.6841
  9.260   -5.3714    1.1597   -5.8994    0.5842   -5.2811    1.1795   -5.2803    0.9016   -5.5645    1.0797   -5.5700    1.0876 -629.7019  -50.9155
  9.270   -5.2996    1.2626   -5.8438    0.6071   -5.1948    1.2914   -5.1812    0.9888   -5.5069    1.1636   -5.5125    1.1716 -673.7794  -51.1632
  9.280   -5.2304    1.3808   -5.7861    0.6326   -5.1094    1.4225   -5.0789    1.0924   -5.4526    1.2591   -5.4582    1.2669 -722.7909  -51.4288
  9.290   -5.1662    1.5165   -5.7262    0.6611   -5.0277    1.5766   -4.9747    1.2161   -5.4034    1.3673   -5.4091    1.3751 -777.0714  -51.7143
  9.300   -5.1106    1.6720   -5.6638    0.6930   -4.9539    1.7578   -4.8712    1.3643   -5.3623    1.4896   -5.3680    1.4975 -836.6952  -52.0218
  9.310   -5.0681    1.8496   -5.5988    0.7290   -4.8944    1.9704   -4.7727    1.5419   -5.3330    1.6269   -5.3388    1.6348 -901.3962  -52.3531
  9.320   -5.0453    2.0504   -5.5309    0.7697   -4.8589    2.2181   -4.6861    1.7542   -5.3203    1.7793   -5.3262    1.7872 -970.5029  -52.7097
  9.330   -5.0504    2.2746   -5.4598    0.8161   -4.8605    2.5026   -4.6217    2.0056   -5.3301    1.9456   -5.3361    1.9535 *********  -53.0930
  9.340   -5.0937    2.5195   -5.3854    0.8693   -4.9171    2.8216   -4.5944    2.2982   -5.3692    2.1222   -5.3755    2.1302 *********  -53.5035
  9.350   -5.1866    2.7781   -5.3075    0.9310   -5.0498    3.1643   -4.6237    2.6286   -5.4445    2.3023   -5.4510    2.3103 *********  -53.9411
  9.360   -5.3402    3.0377   -5.2264    1.0031   -5.2799    3.5079   -4.7317    2.9834   -5.5610    2.4752   -5.5679    2.4833 *********  -54.4049
  9.370   -5.5614    3.2786   -5.1428    1.0880   -5.6200    3.8144   -4.9374    3.3355   -5.7197    2.6265   -5.7270    2.6344 *********  -54.8930
  9.380   -5.8487    3.4754   -5.0584    1.1885   -6.0632    4.0348   -5.2468    3.6446   -5.9142    2.7399   -5.9222    2.7476 *********  -55.4027
  9.390   -6.1876    3.6028   -4.9756    1.3071   -6.5738    4.1224   -5.6425    3.8659   -6.1302    2.8023   -6.1387    2.8096 *********  -55.9302
  9.400   -6.5511    3.6433   -4.8981    1.4459   -7.0914    4.0538   -6.0826    3.9676   -6.3470    2.8087   -6.3560    2.8153 *********  -56.4712
  9.410   -6.9062    3.5944   -4.8297    1.6064   -7.5503    3.8417   -6.5134    3.9450   -6.5437    2.7648   -6.5530    2.7706 *********  -57.0207
  9.420   -7.2237    3.4694   -4.7750    1.7899   -7.9037    3.5298   -6.8896    3.8222   -6.7054    2.6852   -6.7149    2.6900 *********  -57.5735
  9.430   -7.4860    3.2911   -4.7395    1.9973   -8.1357    3.1729   -7.1879    3.6383   -6.8266    2.5883   -6.8359    2.5921 *********  -58.1243
  9.440   -7.6878    3.0838   -4.7300    2.2289   -8.2567    2.8179   -7.4081    3.4314   -6.9098    2.4909   -6.9188    2.4939 *********  -58.6680
  9.450   -7.8334    2.8680   -4.7556    2.4837   -8.2908    2.4954   -7.5643    3.2290   -6.9636    2.4056   -6.9721    2.4078 *********  -59.1998
  9.460   -7.9323    2.6574   -4.8271    2.7575   -8.2649    2.2203   -7.6761    3.0454   -6.9994    2.3396   -7.0073    2.3412 *********  -59.7156
  9.470   -7.9956    2.4598   -4.9565    3.0412   -8.2032    1.9962   -7.7624    2.8843   -7.0295    2.2949   -7.0367    2.2959 *********  -60.2119
  9.480   -8.0333    2.2779   -5.1544    3.3196   -8.1248    1.8201   -7.8380    2.7419   -7.0654    2.2684   -7.0718    2.2690 *********  -60.6859
  9.490   -8.0537    2.1109   -5.4263    3.5701   -8.0439    1.6846   -7.9120    2.6098   -7.1158    2.2526   -7.1214    2.2530 *********  -61.1357
  9.500   -8.0620    1.9562   -5.7680    3.7658   -7.9701    1.5805   -7.9875    2.4780   -7.1853    2.2370   -7.1900    2.2373 *********  -61.5598
  9.510   -8.0607    1.8104   -6.1623    3.8806   -7.9086    1.4977   -8.0616    2.3379   -7.2726    2.2099   -7.2766    2.2102 *********  -61.9575
  9.520   -8.0504    1.6715   -6.5800    3.8967   -7.8603    1.4267   -8.1272    2.1849   -7.3711    2.1616   -7.3742    2.1621 *********  -62.3286
  9.530   -8.0304    1.5384   -6.9856    3.8114   -7.8228    1.3598   -8.1763    2.0193   -7.4700    2.0875   -7.4725    2.0884 -937.7164  -62.6732
  9.540   -8.0003    1.4119   -7.3467    3.6378   -7.7917    1.2927   -8.2026    1.8465   -7.5584    1.9888   -7.5603    1.9900 -867.0090  -62.9918
  9.550   -7.9603    1.2935   -7.6415    3.4005   -7.7626    1.2236   -8.2037    1.6736   -7.6279    1.8713   -7.6294    1.8731 -798.3507  -63.2852
  9.560   -7.9117    1.1845   -7.8616    3.1272   -7.7320    1.1532   -8.1808    1.5081   -7.6743    1.7433   -7.6755    1.7455 -732.2770  -63.5543
  9.570   -7.8565    1.0858   -8.0100    2.8427   -7.6978    1.0830   -8.1381    1.3551   -7.6973    1.6127   -7.6984    1.6154 -669.1951  -63.8003
  9.580   -7.7967    0.9976   -8.0963    2.5654   -7.6596    1.0149   -8.0804    1.2176   -7.6995    1.4856   -7.7005    1.4887 -609.4113  -64.0242
  9.590   -7.7343    0.9195   -8.1329    2.3066   -7.6174    0.9503   -8.0127    1.0965   -7.6847    1.3662   -7.6856    1.3697 -553.1502  -64.2275
  9.600   -7.6709    0.8507   -8.1320    2.0719   -7.5721    0.8900   -7.9392    0.9911   -7.6567    1.2566   -7.6577    1.2604 -500.5663  -64.4115
  9.610   -7.6075    0.7903   -8.1043    1.8632   -7.5245    0.8346   -7.8628    0.9002   -7.6192    1.1576   -7.6202    1.1616 -451.7490  -64.5775
  9.620   -7.5449    0.7372   -8.0580    1.6796   -7.4756    0.7840   -7.7859    0.8219   -7.5752    1.0689   -7.5762    1.0732 -406.7265  -64.7269
  9.630   -7.4838    0.6904   -7.9995    1.5192   -7.4259    0.7380   -7.7099    0.7545   -7.5269    0.9901   -7.5280    0.9946 -365.4673  -64.8612
  9.640   -7.4244    0.6491   -7.9335    1.3797   -7.3761    0.6965   -7.6359    0.6965   -7.4761    0.9201   -7.4773    0.9248 -327.8839  -64.9817
  9.650   -7.3669    0.6125   -7.8634    1.2583   -7.3267    0.6590   -7.5642    0.6463   -7.4240    0.8581   -7.4253    0.8629 -293.8382  -65.0897
  9.660   -7.3114    0.5800   -7.7914    1.1527   -7.2778    0.6251   -7.4953    0.6028   -7.3716    0.8031   -7.3729    0.8080 -263.1486  -65.1864
  9.670   -7.2577    0.5509   -7.7192    1.0606   -7.2298    0.5945   -7.4292    0.5649   -7.3194    0.7542   -7.3209    0.7591 -235.5997  -65.2730
  9.680   -7.2060    0.5248   -7.6478    0.9801   -7.1828    0.5668   -7.3659    0.5317   -7.2680    0.7106   -7.2695    0.7156 -210.9519  -65.3505
  9.690   -7.1562    0.5014   -7.5779    0.9096   -7.1369    0.5417   -7.3053    0.5025   -7.2175    0.6717   -7.2191    0.6768 -188.9525  -65.4200
  9.700   -7.1081    0.4802   -7.5099    0.8475   -7.0921    0.5189   -7.2474    0.4767   -7.1682    0.6368   -7.1698    0.6420 -169.3448  -65.4822
  9.710   -7.0616    0.4610   -7.4441    0.7927   -7.0484    0.4982   -7.1919    0.4538   -7.1201    0.6055   -7.1217    0.6107 -151.8770  -65.5380
  9.720   -7.0167    0.4435   -7.3805    0.7441   -7.0059    0.4792   -7.1388    0.4334   -7.0733    0.5772   -7.0750    0.5825 -136.3090  -65.5881
  9.730   -6.9733    0.4276   -7.3192    0.7009   -6.9645    0.4619   -7.0878    0.4151   -7.0278    0.5517   -7.0295    0.5569 -122.4177  -65.6331
  9.740   -6.9313    0.4130   -7.2602    0.6623   -6.9242    0.4460   -7.0388    0.3986   -6.9836    0.5285   -6.9854    0.5338 -109.9996  -65.6735
  9.750   -6.8905    0.3996   -7.2035    0.6278   -6.8850    0.4313   -6.9917    0.3837   -6.9406    0.5074   -6.9424    0.5127  -98.8735  -65.7099
  9.760   -6.8510    0.3872   -7.1488    0.5967   -6.8467    0.4179   -6.9463    0.3702   -6.8989    0.4882   -6.9008    0.4935  -88.8799  -65.7425
  9.770   -6.8127    0.3758   -7.0962    0.5688   -6.8094    0.4054   -6.9026    0.3579   -6.8583    0.4706   -6.8602    0.4759  -79.8806  -65.7719
  9.780   -6.7754    0.3652   -7.0455    0.5434   -6.7731    0.3939   -6.8604    0.3467   -6.8189    0.4544   -6.8208    0.4597  -71.7571  -65.7982
  9.790   -6.7391    0.3554   -6.9966    0.5205   -6.7376    0.3832   -6.8196    0.3365   -6.7805    0.4395   -6.7825    0.4449  -64.4087  -65.8219
  9.800   -6.7038    0.3463   -6.9495    0.4996   -6.7030    0.3733   -6.7800    0.3270   -6.7432    0.4258   -6.7452    0.4311  -57.7500  -65.8431
  9.810   -6.6694    0.3378   -6.9039    0.4805   -6.6692    0.3640   -6.7417    0.3183   -6.7068    0.4132   -6.7088    0.4185  -51.7088  -65.8621
  9.820   -6.6358    0.3299   -6.8599    0.4630   -6.6361    0.3554   -6.7045    0.3103   -6.6714    0.4014   -6.6734    0.4067  -46.2241  -65.8791
  9.830   -6.6030    0.3224   -6.8173    0.4470   -6.6038    0.3473   -6.6684    0.3028   -6.6368    0.3905   -6.6389    0.3958  -41.2437  -65.8943
  9.840   -6.5709    0.3155   -6.7761    0.4323   -6.5722    0.3397   -6.6333    0.2959   -6.6031    0.3803   -6.6051    0.3856  -36.7228  -65.9078
  9.850   -6.5396    0.3089   -6.7361    0.4187   -6.5412    0.3326   -6.5991    0.2895   -6.5701    0.3709   -6.5722    0.3762  -32.6224  -65.9198
  9.860   -6.5089    0.3027   -6.6973    0.4061   -6.5108    0.3260   -6.5657    0.2834   -6.5379    0.3620   -6.5400    0.3673  -28.9082  -65.9304
  9.870   -6.4789    0.2969   -6.6596    0.3945   -6.4811    0.3197   -6.5332    0.2778   -6.5064    0.3537   -6.5085    0.3590  -25.5493  -65.9398
  9.880   -6.4495    0.2914   -6.6230    0.3837   -6.4519    0.3137   -6.5015    0.2725   -6.4756    0.3459   -6.4777    0.3512  -22.5181  -65.9481
  9.890   -6.4206    0.2862   -6.5873    0.3736   -6.4232    0.3081   -6.4704    0.2676   -6.4454    0.3386   -6.4475    0.3439  -19.7888  -65.9553
  9.900   -6.3923    0.2813   -6.5526    0.3643   -6.3951    0.3028   -6.4401    0.2629   -6.4158    0.3318   -6.4179    0.3370  -17.3379  -65.9617
  9.910   -6.3645    0.2767   -6.5187    0.3555   -6.3675    0.2978   -6.4104    0.2585   -6.3868    0.3253   -6.3889    0.3305  -15.1432  -65.9673
  9.920   -6.3371    0.2722   -6.4857    0.3473   -6.3403    0.2930   -6.3813    0.2543   -6.3583    0.3192   -6.3604    0.3244  -13.1838  -65.9721
  9.930   -6.3103    0.2680   -6.4534    0.3396   -6.3136    0.2885   -6.3528    0.2504   -6.3303    0.3134   -6.3325    0.3186  -11.4403  -65.9763
  9.940   -6.2839    0.2640   -6.4219    0.3324   -6.2873    0.2842   -6.3248    0.2467   -6.3029    0.3079   -6.3051    0.3131   -9.8940  -65.9799
  9.950   -6.2579    0.2602   -6.3911    0.3257   -6.2614    0.2800   -6.2974    0.2431   -6.2759    0.3027   -6.2781    0.3079   -8.5274  -65.9831
  9.960   -6.2323    0.2565   -6.3610    0.3193   -6.2360    0.2761   -6.2704    0.2397   -6.2494    0.2977   -6.2516    0.3029   -7.3240  -65.9858
  9.970   -6.2071    0.2530   -6.3314    0.3133   -6.2109    0.2724   -6.2439    0.2365   -6.2233    0.2930   -6.2255    0.2982   -6.2682  -65.9881
  9.980   -6.1823    0.2497   -6.3025    0.3076   -6.1861    0.2688   -6.2179    0.2335   -6.1977    0.2886   -6.1999    0.2937   -5.3454  -65.9900
  9.990   -6.1579    0.2465   -6.2741    0.3022   -6.1617    0.2654   -6.1923    0.2305   -6.1724    0.2843   -6.1746    0.2894   -4.5420  -65.9919
 10.000   -6.1338    0.2434   -6.2463    0.2971   -6.1377    0.2621   -6.1670    0.2278   -6.1475    0.2802   -6.1497    0.2854   -3.8453  -65.9924
