# Macroscopic dielectric function obtained with the BS equation.
#  RPA L0 with KS energies and KS wavefunctions     LOCAL FIELD EFFECTS INCLUDED
# RESONANT-ONLY calculation
# Coulomb term constructed with full W(G1,G2)
# Scissor operator energy =  0.8000 [eV]
# Tolerance = -0.0010 0.0000
# npweps  = 113
# npwwfn  = 283
# nbands  = 8
# loband  = 2
# nkibz   = 3
# nkbz    = 8
# Lorentzian broadening =  0.0001 [eV]
# List of q-points for the optical limit:
# q =  0.938821, 0.000000, 0.000000, [Reduced coords] 
# q =  0.000000, 0.938821, 0.000000, [Reduced coords] 
# q =  0.000000, 0.000000, 0.938821, [Reduced coords] 
# q =  0.000000, 0.813043, 0.813043, [Reduced coords] 
# q =  0.813043, 0.000000, 0.813043, [Reduced coords] 
# q =  0.813043, 0.813043, 0.000000, [Reduced coords] 
# omega [eV]    RE(eps(q=1)) IM(eps(q=1) RE(eps(q=2) ) ... 
  0.000   57.5835    0.0000   57.4299    0.0000   57.4444    0.0000   57.5297    0.0000   57.6666    0.0000   57.6568    0.0000
  0.010   57.5841    0.0215   57.4305    0.0229   57.4450    0.0228   57.5303    0.0215   57.6672    0.0231   57.6574    0.0231
  0.020   57.5859    0.0430   57.4323    0.0457   57.4468    0.0457   57.5321    0.0430   57.6691    0.0462   57.6592    0.0463
  0.030   57.5890    0.0645   57.4354    0.0686   57.4499    0.0685   57.5352    0.0645   57.6722    0.0693   57.6623    0.0694
  0.040   57.5934    0.0861   57.4397    0.0915   57.4542    0.0913   57.5395    0.0860   57.6765    0.0924   57.6667    0.0926
  0.050   57.5989    0.1076   57.4452    0.1143   57.4597    0.1142   57.5451    0.1075   57.6821    0.1156   57.6723    0.1158
  0.060   57.6057    0.1292   57.4520    0.1372   57.4665    0.1371   57.5519    0.1290   57.6889    0.1387   57.6791    0.1389
  0.070   57.6138    0.1507   57.4599    0.1602   57.4745    0.1600   57.5599    0.1506   57.6970    0.1619   57.6872    0.1621
  0.080   57.6231    0.1723   57.4691    0.1831   57.4837    0.1829   57.5692    0.1721   57.7063    0.1851   57.6965    0.1854
  0.090   57.6336    0.1939   57.4796    0.2061   57.4941    0.2058   57.5797    0.1937   57.7169    0.2083   57.7070    0.2086
  0.100   57.6454    0.2156   57.4913    0.2290   57.5058    0.2288   57.5915    0.2153   57.7287    0.2315   57.7189    0.2319
  0.110   57.6584    0.2373   57.5042    0.2521   57.5187    0.2518   57.6045    0.2370   57.7417    0.2548   57.7319    0.2552
  0.120   57.6726    0.2590   57.5183    0.2751   57.5329    0.2748   57.6188    0.2587   57.7560    0.2781   57.7462    0.2785
  0.130   57.6882    0.2807   57.5337    0.2982   57.5483    0.2979   57.6342    0.2804   57.7716    0.3015   57.7618    0.3019
  0.140   57.7049    0.3025   57.5503    0.3213   57.5649    0.3210   57.6510    0.3021   57.7884    0.3248   57.7786    0.3253
  0.150   57.7229    0.3243   57.5682    0.3445   57.5828    0.3441   57.6690    0.3239   57.8065    0.3483   57.7967    0.3488
  0.160   57.7422    0.3461   57.5873    0.3677   57.6019    0.3673   57.6882    0.3458   57.8258    0.3717   57.8160    0.3723
  0.170   57.7627    0.3680   57.6077    0.3910   57.6222    0.3906   57.7088    0.3676   57.8464    0.3953   57.8366    0.3959
  0.180   57.7845    0.3900   57.6293    0.4143   57.6439    0.4139   57.7305    0.3896   57.8683    0.4188   57.8585    0.4195
  0.190   57.8076    0.4120   57.6521    0.4377   57.6667    0.4372   57.7536    0.4115   57.8914    0.4425   57.8816    0.4431
  0.200   57.8319    0.4341   57.6763    0.4611   57.6909    0.4606   57.7779    0.4336   57.9158    0.4662   57.9060    0.4669
  0.210   57.8575    0.4562   57.7017    0.4846   57.7163    0.4841   57.8034    0.4557   57.9415    0.4899   57.9316    0.4906
  0.220   57.8844    0.4784   57.7283    0.5082   57.7429    0.5076   57.8303    0.4778   57.9684    0.5137   57.9586    0.5145
  0.230   57.9125    0.5006   57.7562    0.5318   57.7708    0.5312   57.8584    0.5001   57.9967    0.5376   57.9868    0.5384
  0.240   57.9419    0.5229   57.7854    0.5555   57.8000    0.5549   57.8878    0.5224   58.0262    0.5616   58.0163    0.5624
  0.250   57.9727    0.5453   57.8158    0.5792   57.8305    0.5786   57.9184    0.5447   58.0570    0.5856   58.0471    0.5865
  0.260   58.0047    0.5678   57.8476    0.6031   57.8622    0.6024   57.9504    0.5671   58.0891    0.6097   58.0792    0.6106
  0.270   58.0380    0.5903   57.8806    0.6270   57.8953    0.6263   57.9837    0.5897   58.1225    0.6339   58.1126    0.6349
  0.280   58.0725    0.6129   57.9149    0.6510   57.9296    0.6503   58.0182    0.6123   58.1572    0.6582   58.1473    0.6592
  0.290   58.1084    0.6356   57.9505    0.6751   57.9652    0.6744   58.0541    0.6349   58.1932    0.6826   58.1833    0.6836
  0.300   58.1457    0.6584   57.9874    0.6993   58.0021    0.6985   58.0913    0.6577   58.2306    0.7070   58.2207    0.7081
  0.310   58.1842    0.6813   58.0256    0.7236   58.0403    0.7228   58.1297    0.6806   58.2692    0.7316   58.2593    0.7327
  0.320   58.2240    0.7043   58.0651    0.7480   58.0798    0.7472   58.1695    0.7035   58.3092    0.7563   58.2993    0.7574
  0.330   58.2652    0.7273   58.1059    0.7724   58.1206    0.7716   58.2107    0.7266   58.3505    0.7810   58.3406    0.7822
  0.340   58.3077    0.7505   58.1481    0.7970   58.1628    0.7962   58.2531    0.7497   58.3931    0.8059   58.3832    0.8071
  0.350   58.3515    0.7738   58.1915    0.8217   58.2063    0.8209   58.2969    0.7730   58.4370    0.8309   58.4271    0.8321
  0.360   58.3967    0.7972   58.2363    0.8465   58.2511    0.8456   58.3420    0.7963   58.4824    0.8560   58.4724    0.8572
  0.370   58.4432    0.8206   58.2824    0.8715   58.2972    0.8705   58.3885    0.8198   58.5290    0.8812   58.5191    0.8825
  0.380   58.4911    0.8443   58.3299    0.8965   58.3447    0.8956   58.4363    0.8434   58.5771    0.9065   58.5671    0.9079
  0.390   58.5403    0.8680   58.3787    0.9217   58.3935    0.9207   58.4855    0.8671   58.6265    0.9320   58.6165    0.9334
  0.400   58.5909    0.8918   58.4289    0.9470   58.4437    0.9460   58.5360    0.8909   58.6772    0.9576   58.6673    0.9590
  0.410   58.6429    0.9158   58.4805    0.9724   58.4953    0.9714   58.5880    0.9149   58.7294    0.9833   58.7194    0.9847
  0.420   58.6962    0.9399   58.5334    0.9980   58.5482    0.9969   58.6413    0.9389   58.7829    1.0092   58.7729    1.0106
  0.430   58.7510    0.9641   58.5877    1.0236   58.6025    1.0226   58.6960    0.9632   58.8378    1.0352   58.8279    1.0367
  0.440   58.8072    0.9885   58.6434    1.0495   58.6582    1.0484   58.7521    0.9875   58.8942    1.0613   58.8842    1.0629
  0.450   58.8647    1.0130   58.7004    1.0755   58.7153    1.0743   58.8096    1.0120   58.9519    1.0876   58.9419    1.0892
  0.460   58.9237    1.0377   58.7589    1.1016   58.7738    1.1005   58.8685    1.0366   59.0111    1.1141   59.0011    1.1157
  0.470   58.9841    1.0625   58.8188    1.1279   58.8337    1.1267   58.9288    1.0614   59.0717    1.1407   59.0617    1.1423
  0.480   59.0459    1.0874   58.8801    1.1544   58.8950    1.1532   58.9906    1.0864   59.1337    1.1675   59.1237    1.1692
  0.490   59.1092    1.1125   58.9428    1.1810   58.9578    1.1797   59.0538    1.1115   59.1972    1.1944   59.1872    1.1961
  0.500   59.1739    1.1378   59.0070    1.2078   59.0220    1.2065   59.1185    1.1367   59.2621    1.2216   59.2521    1.2233
  0.510   59.2401    1.1632   59.0726    1.2347   59.0876    1.2334   59.1846    1.1621   59.3285    1.2488   59.3185    1.2506
  0.520   59.3078    1.1888   59.1397    1.2619   59.1547    1.2605   59.2522    1.1877   59.3964    1.2763   59.3863    1.2781
  0.530   59.3769    1.2146   59.2082    1.2892   59.2233    1.2878   59.3212    1.2135   59.4657    1.3040   59.4557    1.3058
  0.540   59.4475    1.2406   59.2783    1.3167   59.2933    1.3153   59.3918    1.2394   59.5366    1.3318   59.5265    1.3337
  0.550   59.5197    1.2667   59.3498    1.3444   59.3648    1.3430   59.4639    1.2656   59.6089    1.3599   59.5989    1.3618
  0.560   59.5933    1.2931   59.4228    1.3722   59.4379    1.3708   59.5374    1.2919   59.6828    1.3881   59.6727    1.3901
  0.570   59.6684    1.3196   59.4973    1.4003   59.5124    1.3989   59.6125    1.3184   59.7582    1.4166   59.7481    1.4185
  0.580   59.7451    1.3463   59.5733    1.4286   59.5884    1.4272   59.6891    1.3451   59.8352    1.4452   59.8251    1.4472
  0.590   59.8234    1.3732   59.6509    1.4571   59.6660    1.4556   59.7673    1.3720   59.9136    1.4741   59.9035    1.4761
  0.600   59.9032    1.4003   59.7300    1.4858   59.7452    1.4843   59.8470    1.3991   59.9937    1.5032   59.9836    1.5053
  0.610   59.9845    1.4277   59.8106    1.5148   59.8258    1.5132   59.9283    1.4264   60.0753    1.5325   60.0652    1.5346
  0.620   60.0675    1.4552   59.8928    1.5439   59.9081    1.5424   60.0111    1.4540   60.1585    1.5620   60.1484    1.5642
  0.630   60.1520    1.4830   59.9766    1.5733   59.9919    1.5717   60.0956    1.4817   60.2433    1.5918   60.2332    1.5940
  0.640   60.2382    1.5110   60.0620    1.6030   60.0773    1.6013   60.1817    1.5097   60.3298    1.6219   60.3196    1.6241
  0.650   60.3259    1.5392   60.1490    1.6328   60.1643    1.6312   60.2693    1.5380   60.4178    1.6521   60.4077    1.6544
  0.660   60.4153    1.5677   60.2376    1.6629   60.2530    1.6613   60.3587    1.5664   60.5075    1.6826   60.4973    1.6849
  0.670   60.5064    1.5964   60.3279    1.6933   60.3433    1.6916   60.4496    1.5951   60.5988    1.7134   60.5887    1.7157
  0.680   60.5991    1.6254   60.4198    1.7239   60.4352    1.7222   60.5422    1.6241   60.6918    1.7445   60.6817    1.7468
  0.690   60.6935    1.6546   60.5133    1.7548   60.5287    1.7531   60.6365    1.6533   60.7865    1.7758   60.7763    1.7782
  0.700   60.7895    1.6841   60.6086    1.7860   60.6240    1.7842   60.7325    1.6828   60.8829    1.8074   60.8727    1.8098
  0.710   60.8873    1.7138   60.7055    1.8174   60.7209    1.8156   60.8302    1.7125   60.9810    1.8393   60.9708    1.8417
  0.720   60.9868    1.7438   60.8041    1.8492   60.8196    1.8473   60.9296    1.7425   61.0808    1.8714   61.0706    1.8739
  0.730   61.0881    1.7741   60.9044    1.8812   60.9200    1.8793   61.0308    1.7728   61.1824    1.9039   61.1722    1.9064
  0.740   61.1911    1.8047   61.0065    1.9135   61.0221    1.9116   61.1337    1.8034   61.2857    1.9367   61.2755    1.9392
  0.750   61.2958    1.8355   61.1103    1.9461   61.1259    1.9442   61.2384    1.8342   61.3909    1.9698   61.3806    1.9723
  0.760   61.4024    1.8667   61.2159    1.9790   61.2316    1.9771   61.3448    1.8654   61.4978    2.0031   61.4875    2.0057
  0.770   61.5108    1.8981   61.3233    2.0123   61.3390    2.0103   61.4531    1.8969   61.6065    2.0369   61.5962    2.0395
  0.780   61.6209    1.9299   61.4325    2.0458   61.4482    2.0438   61.5632    1.9286   61.7170    2.0709   61.7067    2.0736
  0.790   61.7330    1.9620   61.5435    2.0797   61.5593    2.0777   61.6751    1.9607   61.8294    2.1053   61.8191    2.1080
  0.800   61.8469    1.9944   61.6564    2.1140   61.6721    2.1119   61.7889    1.9932   61.9437    2.1400   61.9334    2.1427
  0.810   61.9626    2.0272   61.7711    2.1485   61.7869    2.1465   61.9046    2.0259   62.0598    2.1751   62.0495    2.1779
  0.820   62.0803    2.0603   61.8877    2.1835   61.9035    2.1814   62.0221    2.0590   62.1779    2.2106   62.1675    2.2133
  0.830   62.1999    2.0937   62.0062    2.2187   62.0220    2.2166   62.1416    2.0924   62.2978    2.2464   62.2875    2.2492
  0.840   62.3214    2.1275   62.1266    2.2544   62.1425    2.2523   62.2630    2.1262   62.4198    2.2826   62.4094    2.2854
  0.850   62.4449    2.1616   62.2490    2.2904   62.2649    2.2883   62.3864    2.1604   62.5436    2.3192   62.5333    2.3220
  0.860   62.5703    2.1962   62.3733    2.3269   62.3892    2.3247   62.5118    2.1949   62.6695    2.3562   62.6591    2.3590
  0.870   62.6978    2.2311   62.4996    2.3637   62.5155    2.3615   62.6391    2.2299   62.7974    2.3935   62.7870    2.3965
  0.880   62.8273    2.2664   62.6279    2.4009   62.6439    2.3987   62.7685    2.2652   62.9273    2.4313   62.9169    2.4343
  0.890   62.9588    2.3020   62.7582    2.4385   62.7742    2.4363   62.8999    2.3009   63.0593    2.4695   63.0488    2.4725
  0.900   63.0924    2.3381   62.8905    2.4766   62.9066    2.4743   63.0334    2.3370   63.1933    2.5082   63.1829    2.5112
  0.910   63.2281    2.3746   63.0250    2.5151   63.0411    2.5127   63.1690    2.3735   63.3295    2.5473   63.3190    2.5503
  0.920   63.3660    2.4116   63.1615    2.5540   63.1777    2.5516   63.3067    2.4104   63.4677    2.5868   63.4573    2.5899
  0.930   63.5059    2.4489   63.3001    2.5934   63.3163    2.5910   63.4466    2.4478   63.6082    2.6268   63.5977    2.6299
  0.940   63.6481    2.4867   63.4409    2.6332   63.4572    2.6308   63.5886    2.4856   63.7507    2.6673   63.7403    2.6704
  0.950   63.7924    2.5250   63.5839    2.6735   63.6002    2.6711   63.7328    2.5239   63.8955    2.7082   63.8850    2.7114
  0.960   63.9389    2.5637   63.7291    2.7143   63.7454    2.7118   63.8792    2.5627   64.0426    2.7497   64.0321    2.7529
  0.970   64.0877    2.6029   63.8764    2.7555   63.8928    2.7530   64.0279    2.6019   64.1918    2.7916   64.1813    2.7948
  0.980   64.2388    2.6425   64.0261    2.7973   64.0425    2.7948   64.1789    2.6416   64.3434    2.8341   64.3329    2.8373
  0.990   64.3922    2.6827   64.1780    2.8396   64.1944    2.8370   64.3321    2.6818   64.4973    2.8771   64.4867    2.8803
  1.000   64.5479    2.7233   64.3322    2.8824   64.3486    2.8798   64.4877    2.7225   64.6535    2.9206   64.6429    2.9239
  1.010   64.7059    2.7645   64.4887    2.9257   64.5052    2.9231   64.6456    2.7637   64.8121    2.9647   64.8015    2.9680
  1.020   64.8664    2.8062   64.6476    2.9696   64.6642    2.9670   64.8060    2.8054   64.9731    3.0093   64.9625    3.0126
  1.030   65.0293    2.8485   64.8089    3.0141   64.8255    3.0114   64.9687    2.8477   65.1365    3.0545   65.1259    3.0579
  1.040   65.1946    2.8913   64.9726    3.0591   64.9893    3.0564   65.1339    2.8906   65.3023    3.1003   65.2917    3.1037
  1.050   65.3624    2.9346   65.1388    3.1047   65.1555    3.1020   65.3016    2.9340   65.4707    3.1467   65.4601    3.1501
  1.060   65.5327    2.9786   65.3075    3.1509   65.3242    3.1482   65.4718    2.9780   65.6416    3.1937   65.6310    3.1971
  1.070   65.7056    3.0231   65.4787    3.1977   65.4954    3.1950   65.6446    3.0226   65.8151    3.2413   65.8044    3.2448
  1.080   65.8811    3.0683   65.6524    3.2452   65.6692    3.2424   65.8200    3.0677   65.9911    3.2896   65.9804    3.2931
  1.090   66.0592    3.1140   65.8287    3.2932   65.8456    3.2904   65.9979    3.1135   66.1698    3.3386   66.1591    3.3421
  1.100   66.2399    3.1604   66.0077    3.3420   66.0246    3.3392   66.1786    3.1600   66.3511    3.3882   66.3404    3.3917
  1.110   66.4234    3.2074   66.1893    3.3914   66.2063    3.3885   66.3619    3.2071   66.5352    3.4385   66.5245    3.4420
  1.120   66.6096    3.2551   66.3736    3.4415   66.3906    3.4386   66.5479    3.2548   66.7220    3.4895   66.7113    3.4931
  1.130   66.7985    3.3035   66.5607    3.4923   66.5777    3.4894   66.7368    3.3033   66.9115    3.5412   66.9008    3.5448
  1.140   66.9903    3.3525   66.7505    3.5438   66.7676    3.5409   66.9284    3.3524   67.1039    3.5937   67.0932    3.5973
  1.150   67.1849    3.4023   66.9431    3.5961   66.9603    3.5931   67.1229    3.4023   67.2992    3.6469   67.2884    3.6505
  1.160   67.3824    3.4528   67.1386    3.6491   67.1558    3.6461   67.3203    3.4528   67.4973    3.7009   67.4866    3.7046
  1.170   67.5828    3.5041   67.3370    3.7028   67.3543    3.6998   67.5206    3.5042   67.6984    3.7557   67.6877    3.7594
  1.180   67.7862    3.5561   67.5383    3.7574   67.5557    3.7544   67.7239    3.5563   67.9025    3.8113   67.8917    3.8150
  1.190   67.9926    3.6088   67.7427    3.8128   67.7600    3.8097   67.9302    3.6091   68.1096    3.8677   68.0988    3.8714
  1.200   68.2021    3.6624   67.9500    3.8689   67.9674    3.8659   68.1396    3.6628   68.3198    3.9249   68.3090    3.9287
  1.210   68.4148    3.7168   68.1604    3.9260   68.1779    3.9229   68.3520    3.7173   68.5331    3.9831   68.5223    3.9869
  1.220   68.6305    3.7720   68.3739    3.9839   68.3914    3.9808   68.5677    3.7726   68.7496    4.0421   68.7388    4.0459
  1.230   68.8495    3.8281   68.5906    4.0427   68.6082    4.0395   68.7865    3.8288   68.9693    4.1021   68.9585    4.1059
  1.240   69.0717    3.8851   68.8105    4.1024   68.8281    4.0992   69.0087    3.8859   69.1923    4.1629   69.1814    4.1668
  1.250   69.2973    3.9429   69.0337    4.1630   69.0514    4.1598   69.2341    3.9439   69.4186    4.2248   69.4077    4.2286
  1.260   69.5262    4.0017   69.2602    4.2246   69.2779    4.2213   69.4629    4.0028   69.6482    4.2876   69.6373    4.2914
  1.270   69.7585    4.0614   69.4900    4.2871   69.5078    4.2839   69.6951    4.0626   69.8813    4.3514   69.8704    4.3553
  1.280   69.9943    4.1221   69.7233    4.3507   69.7411    4.3474   69.9307    4.1234   70.1179    4.4162   70.1070    4.4201
  1.290   70.2336    4.1838   69.9600    4.4152   69.9779    4.4119   70.1699    4.1852   70.3580    4.4821   70.3471    4.4860
  1.300   70.4765    4.2465   70.2003    4.4809   70.2182    4.4775   70.4127    4.2481   70.6016    4.5491   70.5908    4.5530
  1.310   70.7230    4.3103   70.4441    4.5476   70.4622    4.5442   70.6591    4.3120   70.8490    4.6172   70.8381    4.6211
  1.320   70.9733    4.3751   70.6916    4.6154   70.7097    4.6120   70.9093    4.3769   71.1000    4.6864   71.0891    4.6903
  1.330   71.2272    4.4410   70.9429    4.6843   70.9610    4.6809   71.1632    4.4430   71.3549    4.7568   71.3440    4.7607
  1.340   71.4851    4.5080   71.1979    4.7544   71.2161    4.7510   71.4209    4.5102   71.6135    4.8283   71.6026    4.8323
  1.350   71.7468    4.5761   71.4567    4.8257   71.4749    4.8222   71.6825    4.5785   71.8761    4.9011   71.8652    4.9051
  1.360   72.0124    4.6455   71.7194    4.8982   71.7377    4.8947   71.9480    4.6480   72.1427    4.9752   72.1317    4.9792
  1.370   72.2821    4.7161   71.9861    4.9719   72.0045    4.9684   72.2176    4.7188   72.4132    5.0505   72.4023    5.0545
  1.380   72.5559    4.7879   72.2568    5.0469   72.2752    5.0434   72.4913    4.7908   72.6879    5.1272   72.6770    5.1312
  1.390   72.8339    4.8609   72.5316    5.1233   72.5501    5.1197   72.7692    4.8641   72.9668    5.2052   72.9558    5.2092
  1.400   73.1161    4.9353   72.8106    5.2010   72.8292    5.1974   73.0513    4.9387   73.2499    5.2846   73.2390    5.2886
  1.410   73.4026    5.0111   73.0939    5.2800   73.1125    5.2764   73.3377    5.0146   73.5373    5.3655   73.5264    5.3695
  1.420   73.6935    5.0882   73.3814    5.3605   73.4001    5.3569   73.6285    5.0919   73.8292    5.4478   73.8182    5.4518
  1.430   73.9888    5.1667   73.6734    5.4425   73.6922    5.4388   73.9237    5.1707   74.1255    5.5316   74.1146    5.5356
  1.440   74.2887    5.2467   73.9698    5.5259   73.9887    5.5223   74.2236    5.2509   74.4264    5.6169   74.4155    5.6209
  1.450   74.5933    5.3281   74.2709    5.6109   74.2898    5.6072   74.5280    5.3326   74.7319    5.7039   74.7210    5.7079
  1.460   74.9026    5.4111   74.5765    5.6975   74.5955    5.6938   74.8372    5.4159   75.0422    5.7924   75.0313    5.7964
  1.470   75.2166    5.4957   74.8869    5.7857   74.9059    5.7820   75.1512    5.5008   75.3573    5.8827   75.3464    5.8867
  1.480   75.5356    5.5819   75.2021    5.8755   75.2212    5.8718   75.4702    5.5872   75.6773    5.9747   75.6664    5.9787
  1.490   75.8596    5.6698   75.5222    5.9671   75.5414    5.9633   75.7941    5.6754   76.0024    6.0684   75.9914    6.0724
  1.500   76.1886    5.7594   75.8474    6.0605   75.8666    6.0567   76.1231    5.7653   76.3325    6.1639   76.3216    6.1679
  1.510   76.5229    5.8507   76.1776    6.1556   76.1969    6.1518   76.4572    5.8569   76.6678    6.2614   76.6569    6.2654
  1.520   76.8624    5.9438   76.5130    6.2526   76.5324    6.2488   76.7967    5.9504   77.0084    6.3607   76.9975    6.3647
  1.530   77.2073    6.0388   76.8537    6.3515   76.8732    6.3476   77.1416    6.0457   77.3544    6.4620   77.3436    6.4660
  1.540   77.5577    6.1358   77.1998    6.4524   77.2194    6.4485   77.4919    6.1430   77.7060    6.5654   77.6951    6.5693
  1.550   77.9137    6.2346   77.5515    6.5553   77.5711    6.5514   77.8479    6.2423   78.0631    6.6709   78.0523    6.6748
  1.560   78.2754    6.3355   77.9087    6.6603   77.9284    6.6563   78.2096    6.3436   78.4260    6.7785   78.4151    6.7824
  1.570   78.6430    6.4385   78.2717    6.7674   78.2915    6.7635   78.5771    6.4469   78.7947    6.8883   78.7839    6.8922
  1.580   79.0165    6.5437   78.6405    6.8767   78.6604    6.8728   78.9506    6.5525   79.1694    7.0004   79.1586    7.0042
  1.590   79.3961    6.6510   79.0153    6.9883   79.0352    6.9843   79.3302    6.6603   79.5502    7.1148   79.5394    7.1187
  1.600   79.7818    6.7606   79.3962    7.1023   79.4162    7.0983   79.7159    6.7703   79.9371    7.2317   79.9264    7.2355
  1.610   80.1739    6.8726   79.7832    7.2186   79.8033    7.2146   80.1080    6.8828   80.3305    7.3510   80.3197    7.3548
  1.620   80.5724    6.9870   80.1767    7.3374   80.1968    7.3334   80.5066    6.9976   80.7303    7.4729   80.7195    7.4767
  1.630   80.9776    7.1039   80.5766    7.4588   80.5968    7.4547   80.9117    7.1150   81.1367    7.5975   81.1260    7.6013
  1.640   81.3894    7.2233   80.9831    7.5828   81.0034    7.5787   81.3236    7.2350   81.5498    7.7248   81.5391    7.7285
  1.650   81.8082    7.3454   81.3963    7.7095   81.4167    7.7054   81.7424    7.3576   81.9698    7.8549   81.9592    7.8586
  1.660   82.2339    7.4702   81.8165    7.8390   81.8369    7.8349   82.1682    7.4829   82.3969    7.9879   82.3863    7.9915
  1.670   82.6669    7.5978   82.2437    7.9714   82.2642    7.9672   82.6012    7.6111   82.8312    8.1238   82.8206    8.1274
  1.680   83.1071    7.7283   82.6780    8.1067   82.6987    8.1025   83.0415    7.7423   83.2728    8.2629   83.2623    8.2665
  1.690   83.5549    7.8618   83.1198    8.2451   83.1405    8.2409   83.4894    7.8764   83.7220    8.4051   83.7115    8.4086
  1.700   84.0104    7.9984   83.5691    8.3867   83.5899    8.3825   83.9449    8.0136   84.1788    8.5506   84.1683    8.5541
  1.710   84.4736    8.1382   84.0260    8.5315   84.0469    8.5273   84.4083    8.1541   84.6435    8.6995   84.6331    8.7030
  1.720   84.9449    8.2812   84.4908    8.6797   84.5118    8.6755   84.8797    8.2979   85.1162    8.8519   85.1058    8.8553
  1.730   85.4244    8.4277   84.9637    8.8314   84.9847    8.8272   85.3594    8.4451   85.5971    9.0079   85.5868    9.0112
  1.740   85.9123    8.5777   85.4447    8.9867   85.4659    8.9824   85.8474    8.5959   86.0864    9.1676   86.0762    9.1709
  1.750   86.4088    8.7313   85.9342    9.1457   85.9555    9.1414   86.3440    8.7503   86.5843    9.3312   86.5742    9.3344
  1.760   86.9140    8.8887   86.4323    9.3085   86.4536    9.3042   86.8494    8.9085   87.0911    9.4988   87.0810    9.5019
  1.770   87.4283    9.0499   86.9392    9.4752   86.9606    9.4709   87.3639    9.0706   87.6068    9.6705   87.5968    9.6736
  1.780   87.9517    9.2152   87.4552    9.6461   87.4766    9.6418   87.8875    9.2367   88.1317    9.8464   88.1218    9.8494
  1.790   88.4846    9.3846   87.9803    9.8212   88.0019    9.8169   88.4206    9.4071   88.6661   10.0267   88.6563   10.0297
  1.800   89.0271    9.5582   88.5149   10.0007   88.5366    9.9964   88.9634    9.5818   89.2102   10.2116   89.2004   10.2145
  1.810   89.5796    9.7364   89.0592   10.1847   89.0810   10.1804   89.5161    9.7609   89.7642   10.4013   89.7545   10.4041
  1.820   90.1421    9.9191   89.6134   10.3734   89.6353   10.3691   90.0789    9.9447   90.3283   10.5958   90.3187   10.5985
  1.830   90.7151   10.1066   90.1778   10.5670   90.1997   10.5626   90.6521   10.1333   90.9028   10.7953   90.8933   10.7979
  1.840   91.2987   10.2990   90.7526   10.7656   90.7746   10.7612   91.2361   10.3269   91.4880   11.0001   91.4786   11.0026
  1.850   91.8932   10.4966   91.3381   10.9694   91.3601   10.9650   91.8309   10.5257   92.0841   11.2103   92.0748   11.2128
  1.860   92.4989   10.6994   91.9345   11.1786   91.9566   11.1742   92.4370   10.7298   92.6914   11.4262   92.6822   11.4285
  1.870   93.1161   10.9078   92.5421   11.3934   92.5644   11.3890   93.0546   10.9395   93.3102   11.6478   93.3011   11.6501
  1.880   93.7450   11.1218   93.1613   11.6140   93.1836   11.6096   93.6839   11.1549   93.9407   11.8756   93.9318   11.8777
  1.890   94.3861   11.3418   93.7922   11.8406   93.8147   11.8362   94.3254   11.3763   94.5834   12.1096   94.5746   12.1116
  1.900   95.0395   11.5679   94.4353   12.0735   94.4578   12.0690   94.9793   11.6039   95.2385   12.3501   95.2298   12.3520
  1.910   95.7057   11.8004   95.0908   12.3128   95.1134   12.3084   95.6460   11.8379   95.9063   12.5974   95.8978   12.5991
  1.920   96.3850   12.0394   95.7591   12.5589   95.7818   12.5544   96.3258   12.0786   96.5872   12.8517   96.5788   12.8533
  1.930   97.0777   12.2854   96.4405   12.8119   96.4632   12.8075   97.0191   12.3263   97.2815   13.1133   97.2733   13.1148
  1.940   97.7842   12.5385   97.1353   13.0722   97.1582   13.0678   97.7261   12.5812   97.9896   13.3824   97.9816   13.3838
  1.950   98.5048   12.7991   97.8440   13.3401   97.8669   13.3357   98.4474   12.8436   98.7118   13.6595   98.7040   13.6607
  1.960   99.2400   13.0674   98.5669   13.6158   98.5899   13.6114   99.1833   13.1138   99.4486   13.9448   99.4410   13.9458
  1.970   99.9902   13.3437   99.3043   13.8996   99.3274   13.8952   99.9341   13.3922  100.2004   14.2386  100.1930   14.2395
  1.980  100.7558   13.6284  100.0568   14.1920  100.0800   14.1876  100.7004   13.6790  100.9676   14.5412  100.9604   14.5420
  1.990  101.5372   13.9218  100.8247   14.4931  100.8480   14.4887  101.4826   13.9746  101.7505   14.8532  101.7435   14.8537
  2.000  102.3349   14.2243  101.6085   14.8035  101.6318   14.7991  102.2811   14.2794  102.5497   15.1747  102.5430   15.1751
  2.010  103.1494   14.5362  102.4085   15.1235  102.4320   15.1191  103.0964   14.5938  103.3657   15.5063  103.3592   15.5065
  2.020  103.9810   14.8581  103.2254   15.4534  103.2489   15.4490  103.9290   14.9182  104.1988   15.8483  104.1926   15.8483
  2.030  104.8305   15.1902  104.0595   15.7938  104.0831   15.7894  104.7794   15.2530  105.0497   16.2013  105.0438   16.2011
  2.040  105.6982   15.5330  104.9114   16.1450  104.9351   16.1406  105.6481   15.5987  105.9188   16.5656  105.9132   16.5652
  2.050  106.5847   15.8871  105.7817   16.5075  105.8054   16.5032  106.5356   15.9557  106.8066   16.9419  106.8014   16.9412
  2.060  107.4906   16.2529  106.6707   16.8819  106.6945   16.8775  107.4426   16.3245  107.7138   17.3305  107.7089   17.3296
  2.070  108.4165   16.6309  107.5792   17.2686  107.6031   17.2643  108.3697   16.7057  108.6410   17.7321  108.6364   17.7310
  2.080  109.3630   17.0216  108.5077   17.6682  108.5317   17.6639  109.3174   17.0999  109.5886   18.1473  109.5844   18.1459
  2.090  110.3307   17.4258  109.4568   18.0814  109.4808   18.0771  110.2863   17.5076  110.5574   18.5766  110.5535   18.5750
  2.100  111.3203   17.8440  110.4272   18.5086  110.4512   18.5043  111.2772   17.9295  111.5479   19.0207  111.5445   19.0189
  2.110  112.3325   18.2768  111.4194   18.9506  111.4435   18.9463  112.2908   18.3663  112.5610   19.4804  112.5580   19.4783
  2.120  113.3680   18.7249  112.4343   19.4080  112.4585   19.4038  113.3277   18.8185  113.5972   19.9564  113.5947   19.9539
  2.130  114.4275   19.1891  113.4724   19.8816  113.4967   19.8774  114.3887   19.2871  114.6574   20.4493  114.6554   20.4466
  2.140  115.5118   19.6702  114.5346   20.3722  114.5589   20.3680  115.4746   19.7728  115.7422   20.9602  115.7407   20.9572
  2.150  116.6217   20.1690  115.6216   20.8806  115.6460   20.8764  116.5862   20.2763  116.8524   21.4897  116.8515   21.4864
  2.160  117.7581   20.6863  116.7343   21.4076  116.7586   21.4035  117.7243   20.7987  117.9890   22.0390  117.9886   22.0353
  2.170  118.9218   21.2231  117.8734   21.9542  117.8977   21.9501  118.8898   21.3409  119.1527   22.6089  119.1530   22.6048
  2.180  120.1137   21.7804  119.0398   22.5214  119.0642   22.5173  120.0837   21.9038  120.3444   23.2004  120.3453   23.1961
  2.190  121.3349   22.3593  120.2344   23.1102  120.2588   23.1061  121.3068   22.4886  121.5651   23.8148  121.5667   23.8101
  2.200  122.5862   22.9608  121.4581   23.7217  121.4826   23.7176  122.5601   23.0963  122.8156   24.4532  122.8180   24.4481
  2.210  123.8687   23.5861  122.7120   24.3571  122.7365   24.3531  123.8447   23.7282  124.0971   25.1168  124.1002   25.1113
  2.220  125.1834   24.2366  123.9971   25.0177  124.0215   25.0137  125.1617   24.3857  125.4105   25.8070  125.4145   25.8011
  2.230  126.5315   24.9136  125.3143   25.7047  125.3387   25.7008  126.5121   25.0700  126.7570   26.5253  126.7618   26.5190
  2.240  127.9142   25.6185  126.6648   26.4197  126.6892   26.4158  127.8972   25.7826  128.1375   27.2731  128.1433   27.2664
  2.250  129.3326   26.3528  128.0498   27.1642  128.0742   27.1603  129.3181   26.5252  129.5534   28.0521  129.5602   28.0449
  2.260  130.7880   27.1183  129.4704   27.9398  129.4947   27.9359  130.7761   27.2994  131.0058   28.8640  131.0136   28.8564
  2.270  132.2817   27.9167  130.9278   28.7482  130.9521   28.7444  132.2724   28.1070  132.4960   29.7108  132.5049   29.7027
  2.280  133.8150   28.7499  132.4234   29.5913  132.4476   29.5875  133.8085   28.9500  134.0253   30.5943  134.0353   30.5858
  2.290  135.3894   29.6199  133.9584   30.4711  133.9826   30.4674  135.3858   29.8303  135.5950   31.5168  135.6062   31.5078
  2.300  137.0064   30.5289  135.5343   31.3898  135.5584   31.3861  137.0057   30.7503  137.2065   32.4806  137.2191   32.4710
  2.310  138.6674   31.4793  137.1525   32.3496  137.1765   32.3459  138.6698   31.7123  138.8613   33.4880  138.8753   33.4779
  2.320  140.3741   32.4735  138.8145   33.3531  138.8383   33.3494  140.3796   32.7188  140.5609   34.5418  140.5764   34.5312
  2.330  142.1281   33.5143  140.5218   34.4028  140.5455   34.3991  142.1367   33.7727  142.3068   35.6447  142.3239   35.6336
  2.340  143.9311   34.6045  142.2760   35.5016  142.2995   35.4979  143.9430   34.8769  144.1007   36.8000  144.1195   36.7883
  2.350  145.7849   35.7473  144.0788   36.6526  144.1021   36.6489  145.8001   36.0345  145.9441   38.0107  145.9648   37.9985
  2.360  147.6913   36.9461  145.9319   37.8590  145.9550   37.8554  147.7099   37.2491  147.8389   39.2806  147.8615   39.2678
  2.370  149.6522   38.2045  147.8370   39.1245  147.8599   39.1209  149.6743   38.5243  149.7868   40.6134  149.8114   40.6001
  2.380  151.6696   39.5264  149.7960   40.4529  149.8186   40.4492  151.6951   39.8641  151.7895   42.0132  151.8163   41.9994
  2.390  153.7454   40.9162  151.8107   41.8483  151.8329   41.8446  153.7745   41.2730  153.8488   43.4845  153.8780   43.4702
  2.400  155.8819   42.3783  153.8830   43.3152  153.9049   43.3115  155.9143   42.7555  155.9668   45.0322  155.9984   45.0173
  2.410  158.0809   43.9179  156.0148   44.8585  156.0364   44.8547  158.1168   44.3169  158.1451   46.6615  158.1794   46.6461
  2.420  160.3448   45.5402  158.2082   46.4834  158.2294   46.4796  160.3840   45.9625  160.3858   48.3781  160.4230   48.3621
  2.430  162.6757   47.2512  160.4651   48.1957  160.4859   48.1917  162.7181   47.6985  162.6907   50.1880  162.7310   50.1716
  2.440  165.0758   49.0573  162.7876   50.0015  162.8079   49.9974  165.1213   49.5313  165.0618   52.0980  165.1054   52.0811
  2.450  167.5474   50.9654  165.1776   51.9075  165.1974   51.9032  167.5957   51.4680  167.5009   54.1153  167.5480   54.0980
  2.460  170.0926   52.9831  167.6372   53.9211  167.6564   53.9166  170.1435   53.5163  170.0098   56.2478  170.0607   56.2302
  2.470  172.7137   55.1185  170.1683   56.0502  170.1869   56.0455  172.7667   55.6846  172.5903   58.5041  172.6452   58.4862
  2.480  175.4128   57.3808  172.7728   58.3034  172.7906   58.2985  175.4675   57.9821  175.2439   60.8935  175.3031   60.8754
  2.490  178.1919   59.7796  175.4524   60.6903  175.4695   60.6850  178.2477   60.4189  177.9721   63.4262  178.0360   63.4080
  2.500  181.0529   62.3257  178.2088   63.2210  178.2250   63.2154  181.1091   63.0057  180.7761   66.1133  180.8450   66.0951
  2.510  183.9975   65.0308  181.0433   65.9070  181.0587   65.9009  184.0532   65.7547  183.6570   68.9670  183.7313   68.9489
  2.520  187.0272   67.9078  183.9573   68.7604  183.9717   68.7538  187.0814   68.6789  186.6152   72.0004  186.6953   71.9827
  2.530  190.1430   70.9706  186.9514   71.7947  186.9648   71.7876  190.1945   71.7926  189.6509   75.2282  189.7373   75.2110
  2.540  193.3457   74.2347  190.0262   75.0247  190.0385   75.0168  193.3929   75.1114  192.7638   78.6660  192.8568   78.6496
  2.550  196.6355   77.7170  193.1814   78.4664  193.1925   78.4576  196.6765   78.6527  195.9526   82.3313  196.0529   82.3159
  2.560  200.0117   81.4358  196.4162   82.1375  196.4260   82.1277  200.0443   82.4352  199.2155   86.2429  199.3236   86.2289
  2.570  203.4729   85.4116  199.7290   86.0572  199.7374   86.0463  203.4946   86.4797  202.5494   90.4215  202.6658   90.4093
  2.580  207.0167   89.6666  203.1171   90.2468  203.1240   90.2346  207.0243   90.8088  205.9499   94.8898  206.0753   94.8798
  2.590  210.6392   94.2252  206.5764   94.7294  206.5818   94.7156  210.6290   95.4474  209.4111   99.6724  209.5462   99.6653
  2.600  214.3349   99.1142  210.1014   99.5303  210.1052   99.5148  214.3024  100.4227  212.9250  104.7963  213.0705  104.7927
  2.610  218.0963  104.3630  213.6845  104.6773  213.6866  104.6598  218.0363  105.7644  216.4815  110.2909  216.6382  110.2915
  2.620  221.9133  110.0035  217.3159  110.2007  217.3162  110.1808  221.8197  111.5052  220.0674  116.1881  220.2360  116.1939
  2.630  225.7729  116.0709  220.9829  116.1335  220.9813  116.1108  225.6383  117.6805  223.6662  122.5224  223.8475  122.5345
  2.640  229.6584  122.6032  224.6691  122.5115  224.6656  122.4856  229.4741  124.3289  227.2570  129.3314  227.4520  129.3510
  2.650  233.5485  129.6420  228.3541  129.3736  228.3488  129.3440  233.3043  131.4921  230.8143  136.6551  231.0237  136.6836
  2.660  237.4165  137.2318  232.0124  136.7617  232.0052  136.7280  237.1002  139.2151  234.3062  144.5364  234.5310  144.5757
  2.670  241.2291  145.4207  235.6122  144.7209  235.6033  144.6823  240.8266  147.5461  237.6938  153.0207  237.9348  153.0727
  2.680  244.9451  154.2598  239.1145  153.2990  239.1041  153.2548  244.4397  156.5361  240.9299  162.1557  241.1878  162.2228
  2.690  248.5139  163.8030  242.4715  162.5463  242.4598  162.4958  247.8861  166.2388  243.9572  171.9905  244.2325  172.0752
  2.700  251.8735  174.1063  245.6249  172.5152  245.6123  172.4576  251.1007  176.7094  246.7064  182.5746  246.9998  182.6802
  2.710  254.9487  185.2268  248.5042  183.2591  248.4913  183.1934  254.0046  188.0037  249.0951  193.9569  249.4065  194.0869
  2.720  257.6490  197.2209  251.0246  194.8309  251.0121  194.7561  256.5032  200.1764  251.0250  206.1835  251.3543  206.3419
  2.730  259.8654  210.1425  253.0845  207.2813  253.0735  207.1964  258.4833  213.2785  252.3801  219.2948  252.7265  219.4862
  2.740  261.4689  224.0396  254.5635  220.6555  254.5553  220.5595  259.8110  227.3542  253.0250  233.3222  253.3872  233.5517
  2.750  262.3073  238.9501  255.3200  234.9902  255.3163  234.8819  260.3296  242.4363  252.8031  248.2835  253.1788  248.5565
  2.760  262.2035  254.8963  255.1892  250.3077  255.1921  250.1864  259.8573  258.5403  251.5357  264.1768  251.9215  264.4994
  2.770  260.9542  271.8781  253.9818  266.6106  253.9938  266.4756  258.1870  275.6575  249.0223  280.9736  249.4134  281.3519
  2.780  258.3301  289.8641  251.4839  283.8730  251.5081  283.7240  255.0862  293.7459  245.0424  298.6106  245.4326  299.0508
  2.790  254.0780  308.7813  247.4586  302.0318  247.4986  301.8691  250.3008  312.7200  239.3601  316.9799  239.7411  317.4879
  2.800  247.9263  328.5037  241.6508  320.9758  241.7105  320.8005  243.5605  332.4391  231.7313  335.9198  232.0928  336.5008
  2.810  239.5944  348.8401  233.7948  340.5343  233.8784  340.3484  234.5900  352.6961  221.9156  355.2053  222.2454  355.8628
  2.820  228.8079  369.5225  223.6274  360.4660  223.7392  360.2729  223.1240  373.2067  209.6922  374.5407  209.9757  375.2764
  2.830  215.3186  390.1975  210.9062  380.4504  211.0503  380.2548  208.9289  393.6018  194.8804  393.5567  195.1014  394.3693
  2.840  198.9321  410.4227  195.4334  400.0829  195.6131  399.8909  191.8298  413.4263  177.3638  411.8127  177.5049  412.6971
  2.850  179.5384  429.6728  177.0848  418.8781  177.3020  418.6974  171.7410  432.1463  157.1166  428.8086  157.1603  429.7554
  2.860  157.1461  447.3561  155.8409  436.2830  156.0956  436.1225  148.6983  449.1685  134.2283  444.0056  134.1582  445.0007
  2.870  131.9120  462.8471  131.8163  451.7040  132.1063  451.5731  122.8866  463.8729  108.9232  456.8589  108.7254  457.8833
  2.880  104.1624  475.5316  105.2828  464.5462  105.6030  464.4542   94.6575  475.6590   81.5694  466.8582   81.2343  467.8890
  2.890   74.3965  484.8643   76.6768  474.2649   77.0193  474.2201   64.5302  484.0010   52.6729  473.5746   52.1961  474.5861
  2.900   43.2674  490.4293   46.5879  480.4227   46.9423  480.4314   33.1705  488.5059   22.8537  476.7064   22.2374  477.6715
  2.910   11.5377  491.9947   15.7239  482.7426   16.0779  482.8082    1.3455  488.9630   -7.1943  476.1157   -7.9415  477.0083
  2.920  -19.9871  489.5482  -15.1457  481.1472  -14.8052  481.2698  -30.1401  485.3762  -36.7593  471.8505  -37.6227  472.6473
  2.930  -50.5393  483.3044  -45.2617  475.7752  -44.9479  475.9515  -60.5199  477.9681  -65.1729  464.1448  -66.1332  464.8266
  2.940  -79.4697  473.6795  -73.9511  466.9672  -73.6762  467.1904  -89.1400  467.1553  -91.8713  453.3948  -92.9059  453.9477
  2.950 -106.3155  461.2307 -100.6959  455.2208 -100.4701  455.4809 -115.5199  453.4925 -116.4441  440.1130 -117.5292  440.5286
  2.960 -130.8396  446.5694 -125.1790  441.1185 -125.0100  441.4033 -139.3865  437.5965 -138.6648  424.8641 -139.7764  425.1389
  2.970 -153.0264  430.2565 -147.2970  425.2367 -147.1892  425.5314 -160.6729  420.0566 -158.4921  408.1884 -159.6073  408.3229
  2.980 -173.0234  412.7026 -167.1257  408.0503 -167.0792  408.3390 -179.4737  401.3511 -176.0352  390.5265 -177.1320  390.5246
  2.990 -191.0211  394.1093 -184.8323  389.8635 -184.8417  390.1303 -195.9548  381.7959 -191.4774  372.1667 -192.5348  372.0350
  3.000 -207.1059  374.5007 -200.5503  370.8067 -200.6047  371.0382 -210.2424  361.5579 -204.9736  353.2454 -205.9707  352.9944
  3.010 -221.1615  353.8631 -214.2759  350.9240 -214.3598  351.1124 -222.3446  340.7462 -216.5661  333.8221 -217.4837  333.4670
  3.020 -232.9078  332.3262 -225.8588  330.3186 -225.9562  330.4636 -232.1673  319.5363 -226.1785  313.9960 -227.0012  313.5577
  3.030 -242.0693  310.2558 -235.1096  309.2550 -235.2076  309.3629 -239.6199  298.2365 -233.7015  293.9889 -234.4209  293.4918
  3.040 -248.5506  288.1876 -241.9410  288.1441 -242.0327  288.2241 -244.7296  277.2479 -239.1055  274.1323 -239.7209  273.6011
  3.050 -252.4978  266.6668 -246.4432  267.4351 -246.5272  267.4961 -247.6797  256.9610 -242.4985  254.7822 -243.0162  254.2381
  3.060 -254.2385  246.1170 -248.8620  247.5057 -248.9405  247.5541 -248.7686  237.6701 -244.1079  236.2326 -244.5383  235.6920
  3.070 -254.1781  226.7923 -249.5262  228.6072 -249.6026  228.6461 -248.3385  219.5445 -244.2222  218.6737 -244.5771  218.1479
  3.080 -252.7145  208.7949 -248.7770  210.8647 -248.8549  210.8949 -246.7180  202.6428 -243.1351  202.1934 -243.4265  201.6896
  3.090 -250.1933  192.1194 -246.9245  194.3051 -247.0070  194.3255 -244.1916  186.9449 -241.1117  186.8009 -241.3507  186.3231
  3.100 -246.8932  176.6945 -244.2290  178.8900 -244.3179  178.8982 -240.9907  172.3821 -238.3740  172.4528 -238.5704  172.0026
  3.110 -243.0287  162.4145 -240.8974  164.5421 -240.9938  164.5351 -237.2955  158.8597 -235.0992  159.0750 -235.2616  158.6523
  3.120 -238.7584  149.1587 -237.0879  151.1642 -237.1918  151.1383 -233.2417  146.2713 -231.4232  146.5769 -231.5590  146.1802
  3.130 -234.1947  136.8034 -232.9160  138.6510 -233.0264  138.6020 -228.9276  134.5073 -227.4460  134.8617 -227.5614  134.4884
  3.140 -229.4116  125.2281 -228.4606  126.8966 -228.5756  126.8201 -224.4193  123.4601 -223.2367  123.8311 -223.3363  123.4775
  3.150 -224.4510  114.3197 -223.7691  115.7995 -223.8852  115.6904 -219.7560  113.0266 -218.8373  113.3896 -218.9238  113.0513
  3.160 -219.3262  103.9744 -218.8608  105.2654 -218.9730  105.1186 -214.9517  103.1104 -214.2647  103.4460 -214.3387  103.1184
  3.170 -214.0248   94.1001 -213.7293   95.2106 -213.8304   95.0212 -209.9968   93.6228 -209.5119   93.9157 -209.5717   93.5950
  3.180 -208.5090   84.6191 -208.3437   85.5654 -208.4238   85.3290 -204.8577   84.4860 -204.5471   84.7231 -204.5884   84.4075
  3.190 -202.7155   75.4722 -202.6489   76.2778 -202.6949   75.9917 -199.4753   75.6361 -199.3108   75.8060 -199.3282   75.4972
  3.200 -196.5540   66.6259 -196.5658   67.3210 -196.5611   66.9857 -193.7619   67.0306 -193.7129   67.1237 -193.7017   66.8282
  3.210 -189.9079   58.0848 -189.9921   58.7038 -189.9167   58.3251 -187.5994   58.6603 -187.6295   58.6710 -187.5893   58.4001
  3.220 -182.6382   49.9097 -182.8077   50.4862 -182.6399   50.0782 -180.8410   50.5686 -180.9057   50.5019 -180.8449   50.2691
  3.230 -174.6008   42.2429 -174.8905   42.8005 -174.6096   42.3881 -173.3241   42.8796 -173.3736   42.7615 -173.3123   42.5754
  3.240 -165.6849   35.3329 -166.1488   35.8709 -165.7420   35.4921 -164.9067   35.8290 -164.8991   35.7187 -164.8657   35.5722
  3.250 -155.8809   29.5410 -156.5793   30.0188 -156.0499   29.7221 -155.5367   29.7806 -155.4657   29.7728 -155.4837   29.6339
  3.260 -145.3702   25.2971 -146.3415   25.6270 -145.7175   25.4625 -145.3518   25.1916 -145.2820   25.3923 -145.3455   25.2096
  3.270 -134.5894   22.9788 -135.8154   23.0420 -135.1511   23.0453 -134.7638   22.4921 -134.8429   22.9588 -134.9009   22.6905
  3.280 -124.1971   22.7352 -125.5848   22.4271 -124.9497   22.6028 -124.4424   21.8910 -124.8548   22.5657 -124.8271   22.2210
  3.290 -114.9024   24.3562 -116.3071   23.6376 -115.7635   23.9544 -115.1397   23.2148 -116.0070   23.9134 -115.8368   23.5665
  3.300 -107.2270   27.2977 -108.5095   26.2133 -108.0930   26.6166 -107.4233   25.9191 -108.7247   26.4082 -108.4266   26.1598
  3.310 -101.3516   30.8664 -102.4283   29.5139 -102.1428   29.9467 -101.4968   29.2886 -103.0754   29.3979 -102.7327   29.3111
  3.320  -97.1268   34.4388  -97.9768   32.9174  -97.8038   33.3356  -97.2105   32.6847  -98.8564   32.3728  -98.5703   32.4362
  3.330  -94.1994   37.5990  -94.8355   35.9799  -94.7455   36.3561  -94.2098   35.6923  -95.7535   35.0347  -95.5855   35.1764
  3.340  -92.1623   40.1705  -92.6036   38.5018  -92.5637   38.8268  -92.1001   38.1367  -93.4639   37.2616  -93.4105   37.3978
  3.350  -90.6784   42.1719  -90.9465   40.4920  -90.9301   40.7739  -90.5594   40.0200  -91.7503   39.0371  -91.7607   39.1184
  3.360  -89.5507   43.7171  -89.6741   42.0529  -89.6708   42.3078  -89.3838   41.4277  -90.4459   40.3902  -90.4631   40.4172
  3.370  -88.7093   44.9042  -88.7145   43.2664  -88.7274   43.5041  -88.4723   42.4458  -89.4372   41.3596  -89.4311   41.3639
  3.380  -88.1334   45.7619  -88.0355   44.1529  -88.0700   44.3725  -87.7747   43.1203  -88.6427   41.9787  -88.6151   41.9930
  3.390  -87.7843   46.2708  -87.5893   44.6966  -87.6449   44.8918  -87.2440   43.4635  -87.9960   42.2738  -87.9661   42.3142
  3.400  -87.5879   46.4095  -87.3018   44.8824  -87.3725   45.0478  -86.8189   43.4808  -87.4374   42.2695  -87.4248   42.3338
  3.410  -87.4530   46.1825  -87.0868   44.7175  -87.1645   44.8516  -86.4297   43.1903  -86.9113   41.9938  -86.9269   42.0701
  3.420  -87.2931   45.6248  -86.8635   44.2342  -86.9405   44.3391  -86.0118   42.6284  -86.3685   41.4814  -86.4135   41.5561
  3.430  -87.0412   44.7929  -86.5679   43.4838  -86.6387   43.5636  -85.5157   41.8451  -85.7699   40.7732  -85.8389   40.8362
  3.440  -86.6546   43.7525  -86.1576   42.5262  -86.2187   42.5860  -84.9102   40.8957  -85.0883   39.9137  -85.1735   39.9596
  3.450  -86.1131   42.5687  -85.6104   41.4219  -85.6604   41.4661  -84.1818   39.8336  -84.3090   38.9466  -84.4027   38.9744
  3.460  -85.4145   41.2994  -84.9210   40.2252  -84.9596   40.2579  -83.3299   38.7055  -83.4280   37.9120  -83.5240   37.9233
  3.470  -84.5683   39.9920  -84.0954   38.9817  -84.1231   39.0061  -82.3634   37.5498  -82.4493   36.8441  -82.5433   36.8415
  3.480  -83.5909   38.6829  -83.1469   37.7272  -83.1648   37.7457  -81.2958   36.3954  -81.3819   35.7701  -81.4716   35.7569
  3.490  -82.5016   37.3986  -82.0924   36.4884  -82.1013   36.5028  -80.1429   35.2638  -80.2381   34.7108  -80.3223   34.6901
  3.500  -81.3203   36.1574  -80.9494   35.2842  -80.9505   35.2957  -78.9208   34.1695  -79.0308   33.6813  -79.1091   33.6555
  3.510  -80.0657   34.9712  -79.7351   34.1273  -79.7293   34.1367  -77.6441   33.1219  -77.7727   32.6919  -77.8453   32.6630
  3.520  -78.7543   33.8470  -78.4652   33.0256  -78.4533   33.0335  -76.3264   32.1266  -76.4757   31.7492  -76.5431   31.7188
  3.530  -77.4007   32.7882  -77.1533   31.9834  -77.1361   31.9903  -74.9790   31.1866  -75.1501   30.8570  -75.2131   30.8262
  3.540  -76.0173   31.7960  -75.8113   31.0026  -75.7893   31.0087  -73.6116   30.3026  -73.8052   30.0171  -73.8643   29.9867
  3.550  -74.6141   30.8697  -74.4492   30.0834  -74.4228   30.0889  -72.2325   29.4742  -72.4485   29.2300  -72.5045   29.2005
  3.560  -73.1997   30.0077  -73.0753   29.2247  -73.0450   29.2297  -70.8482   28.7002  -71.0867   28.4950  -71.1400   28.4668
  3.570  -71.7810   29.2079  -71.6965   28.4247  -71.6625   28.4294  -69.4642   27.9786  -69.7249   27.8110  -69.7761   27.7843
  3.580  -70.3635   28.4676  -70.3183   27.6812  -70.2809   27.6856  -68.0848   27.3074  -68.3676   27.1763  -68.4172   27.1513
  3.590  -68.9517   27.7840  -68.9453   26.9918  -68.9047   26.9958  -66.7135   26.6844  -67.0184   26.5892  -67.0667   26.5658
  3.600  -67.5492   27.1543  -67.5812   26.3537  -67.5376   26.3576  -65.3531   26.1070  -65.6800   26.0476  -65.7274   26.0259
  3.610  -66.1587   26.5758  -66.2290   25.7645  -66.1823   25.7681  -64.0057   25.5732  -64.3548   25.5495  -64.4016   25.5295
  3.620  -64.7826   26.0458  -64.8908   25.2214  -64.8412   25.2249  -62.6730   25.0806  -63.0447   25.0931  -63.0910   25.0746
  3.630  -63.4224   25.5618  -63.5685   24.7222  -63.5161   24.7255  -61.3563   24.6271  -61.7509   24.6764  -61.7971   24.6595
  3.640  -62.0796   25.1216  -62.2635   24.2643  -62.2083   24.2676  -60.0563   24.2107  -60.4746   24.2976  -60.5207   24.2821
  3.650  -60.7549   24.7229  -60.9768   23.8456  -60.9189   23.8488  -58.7737   23.8295  -59.2166   23.9550  -59.2628   23.9409
  3.660  -59.4491   24.3637  -59.7092   23.4640  -59.6484   23.4673  -57.5089   23.4818  -57.9774   23.6471  -58.0238   23.6341
  3.670  -58.1627   24.0422  -58.4611   23.1176  -58.3976   23.1209  -56.2621   23.1659  -56.7574   23.3723  -56.8041   23.3605
  3.680  -56.8959   23.7567  -57.2328   22.8045  -57.1664   22.8080  -55.0331   22.8804  -55.5569   23.1294  -55.6039   23.1185
  3.690  -55.6487   23.5058  -56.0244   22.5231  -55.9552   22.5268  -53.8219   22.6239  -54.3758   22.9170  -54.4232   22.9070
  3.700  -54.4212   23.2882  -54.8358   22.2719  -54.7638   22.2758  -52.6281   22.3952  -53.2143   22.7341  -53.2620   22.7249
  3.710  -53.2133   23.1026  -53.6669   22.0494  -53.5920   22.0537  -51.4515   22.1932  -52.0721   22.5797  -52.1203   22.5712
  3.720  -52.0248   22.9481  -52.5174   21.8545  -52.4395   21.8592  -50.2915   22.0170  -50.9491   22.4529  -50.9977   22.4449
  3.730  -50.8554   22.8238  -51.3869   21.6859  -51.3060   21.6912  -49.1475   21.8657  -49.8452   22.3530  -49.8941   22.3455
  3.740  -49.7049   22.7289  -50.2750   21.5428  -50.1911   21.5487  -48.0191   21.7385  -48.7600   22.2793  -48.8092   22.2721
  3.750  -48.5731   22.6630  -49.1812   21.4242  -49.0941   21.4308  -46.9054   21.6351  -47.6933   22.2314  -47.7427   22.2245
  3.760  -47.4595   22.6255  -48.1049   21.3295  -48.0147   21.3370  -45.8059   21.5548  -46.6448   22.2088  -46.6943   22.2021
  3.770  -46.3640   22.6162  -47.0456   21.2580  -46.9521   21.2665  -44.7198   21.4975  -45.6143   22.2113  -45.6638   22.2046
  3.780  -45.2864   22.6349  -46.0026   21.2093  -45.9058   21.2189  -43.6464   21.4629  -44.6015   22.2386  -44.6508   22.2320
  3.790  -44.2264   22.6815  -44.9752   21.1831  -44.8751   21.1939  -42.5849   21.4510  -43.6062   22.2907  -43.6552   22.2842
  3.800  -43.1840   22.7560  -43.9630   21.1791  -43.8594   21.1913  -41.5345   21.4618  -42.6283   22.3677  -42.6767   22.3612
  3.810  -42.1591   22.8586  -42.9651   21.1974  -42.8579   21.2111  -40.4945   21.4958  -41.6676   22.4695  -41.7153   22.4631
  3.820  -41.1518   22.9895  -41.9810   21.2379  -41.8702   21.2534  -39.4641   21.5531  -40.7241   22.5965  -40.7709   22.5903
  3.830  -40.1622   23.1491  -41.0100   21.3009  -40.8955   21.3184  -38.4427   21.6345  -39.7978   22.7489  -39.8436   22.7429
  3.840  -39.1905   23.3375  -40.0515   21.3868  -39.9332   21.4065  -37.4295   21.7406  -38.8888   22.9269  -38.9334   22.9214
  3.850  -38.2372   23.5553  -39.1050   21.4962  -38.9828   21.5182  -36.4238   21.8722  -37.9973   23.1312  -38.0405   23.1263
  3.860  -37.3027   23.8029  -38.1700   21.6296  -38.0438   21.6543  -35.4251   22.0305  -37.1236   23.3620  -37.1653   23.3580
  3.870  -36.3876   24.0806  -37.2460   21.7881  -37.1157   21.8156  -34.4328   22.2167  -36.2680   23.6199  -36.3082   23.6171
  3.880  -35.4925   24.3887  -36.3327   21.9726  -36.1981   22.0034  -33.4464   22.4321  -35.4310   23.9056  -35.4697   23.9041
  3.890  -34.6180   24.7278  -35.4297   22.1844  -35.2909   22.2187  -32.4657   22.6785  -34.6131   24.2195  -34.6503   24.2196
  3.900  -33.7650   25.0980  -34.5371   22.4249  -34.3938   22.4631  -31.4903   22.9576  -33.8149   24.5623  -33.8507   24.5643
  3.910  -32.9342   25.4997  -33.6546   22.6958  -33.5069   22.7384  -30.5201   23.2716  -33.0371   24.9348  -33.0716   24.9389
  3.920  -32.1262   25.9332  -32.7827   22.9991  -32.6304   23.0464  -29.5552   23.6229  -32.2803   25.3378  -32.3138   25.3440
  3.930  -31.3417   26.3988  -31.9217   23.3367  -31.7647   23.3894  -28.5959   24.0140  -31.5454   25.7722  -31.5781   25.7805
  3.940  -30.5811   26.8971  -31.0724   23.7112  -30.9107   23.7697  -27.6426   24.4478  -30.8334   26.2391  -30.8653   26.2493
  3.950  -29.8448   27.4287  -30.2357   24.1251  -30.0693   24.1901  -26.6962   24.9276  -30.1451   26.7399  -30.1764   26.7518
  3.960  -29.1331   27.9949  -29.4132   24.5813  -29.2421   24.6535  -25.7578   25.4569  -29.4820   27.2760  -29.5123   27.2893
  3.970  -28.4463   28.5973  -28.6069   25.0829  -28.4311   25.1632  -24.8291   26.0395  -28.8455   27.8495  -28.8745   27.8639
  3.980  -27.7850   29.2380  -27.8192   25.6334  -27.6389   25.7224  -23.9120   26.6797  -28.2375   28.4625  -28.2644   28.4777
  3.990  -27.1498   29.9201  -27.0533   26.2361  -26.8688   26.3350  -23.0093   27.3821  -27.6605   29.1177  -27.6844   29.1337
  4.000  -26.5424   30.6474  -26.3134   26.8946  -26.1250   27.0044  -22.1243   28.1515  -27.1178   29.8179  -27.1375   29.8350
  4.010  -25.9651   31.4246  -25.6045   27.6128  -25.4126   27.7346  -21.2615   28.9933  -26.6135   30.5663  -26.6277   30.5855
  4.020  -25.4219   32.2570  -24.9324   28.3940  -24.7378   28.5291  -20.4262   29.9130  -26.1531   31.3663  -26.1605   31.3890
  4.030  -24.9183   33.1501  -24.3046   29.2414  -24.1081   29.3912  -19.6249   30.9164  -25.7435   32.2209  -25.7431   32.2492
  4.040  -24.4619   34.1100  -23.7296   30.1579  -23.5324   30.3237  -18.8656   32.0092  -25.3933   33.1329  -25.3846   33.1695
  4.050  -24.0627   35.1419  -23.2175   31.1453  -23.0211   31.3284  -18.1582   33.1972  -25.1127   34.1042  -25.0962   34.1520
  4.060  -23.7333   36.2504  -22.7797   32.2042  -22.5859   32.4061  -17.5141   34.4859  -24.9142   35.1350  -24.8910   35.1973
  4.070  -23.4890   37.4380  -22.4292   33.3339  -22.2402   33.5557  -16.9474   35.8800  -24.8120   36.2237  -24.7844   36.3035
  4.080  -23.3475   38.7051  -22.1802   34.5312  -21.9989   34.7740  -16.4744   37.3832  -24.8220   37.3658  -24.7933   37.4655
  4.090  -23.3290   40.0484  -22.0482   35.7905  -21.8776   36.0550  -16.1140   38.9976  -24.9613   38.5529  -24.9357   38.6744
  4.100  -23.4554   41.4604  -22.0491   37.1031  -21.8928   37.3895  -15.8884   40.7227  -25.2477   39.7724  -25.2298   39.9162
  4.110  -23.7496   42.9285  -22.1988   38.4565  -22.0609   38.7644  -15.8222   42.5546  -25.6981   41.0066  -25.6929   41.1720
  4.120  -24.2343   44.4339  -22.5127   39.8344  -22.3973   40.1625  -15.9430   44.4849  -26.3274   42.2323  -26.3396   42.4171
  4.130  -24.9305   45.9513  -23.0041   41.2162  -22.9157   41.5624  -16.2803   46.4996  -27.1469   43.4205  -27.1804   43.6215
  4.140  -25.8557   47.4488  -23.6836   42.5771  -23.6266   42.9382  -16.8647   48.5771  -28.1619   44.5376  -28.2197   44.7504
  4.150  -27.0216   48.8878  -24.5577   43.8890  -24.5358   44.2606  -17.7265   50.6877  -29.3700   45.5462  -29.4538   45.7660
  4.160  -28.4323   50.2245  -25.6277   45.1203  -25.6442   45.4970  -18.8931   52.7917  -30.7598   46.4076  -30.8701   46.6295
  4.170  -30.0816   51.4116  -26.8887   46.2379  -26.9457   46.6132  -20.3861   54.8395  -32.3098   47.0842  -32.4456   47.3035
  4.180  -31.9523   52.4009  -28.3288   47.2079  -28.4270   47.5748  -22.2180   56.7720  -33.9883   47.5431  -34.1479   47.7558
  4.190  -34.0152   53.1466  -29.9288   47.9978  -30.0672   48.3488  -24.3880   58.5219  -35.7554   47.7589  -35.9361   47.9618
  4.200  -36.2291   53.6089  -31.6618   48.5779  -31.8377   48.9058  -26.8787   60.0176  -37.5649   47.7166  -37.7639   47.9072
  4.210  -38.5431   53.7572  -33.4943   48.9236  -33.7033   49.2217  -29.6534   61.1883  -39.3679   47.4127  -39.5821   47.5895
  4.220  -40.8989   53.5733  -35.3866   49.0173  -35.6228   49.2802  -32.6554   61.9699  -41.1167   46.8562  -41.3432   47.0183
  4.230  -43.2345   53.0529  -37.2950   48.8500  -37.5514   49.0738  -35.8101   62.3120  -42.7681   46.0665  -43.0040   46.2136
  4.240  -45.4886   52.2068  -39.1743   48.4227  -39.4432   48.6053  -39.0289   62.1842  -44.2862   45.0721  -44.5288   45.2044
  4.250  -47.6045   51.0597  -40.9801   47.7466  -41.2539   47.8878  -42.2167   61.5801  -45.6442   43.9071  -45.8913   44.0251
  4.260  -49.5341   49.6479  -42.6722   46.8425  -42.9438   46.9439  -45.2798   60.5184  -46.8249   42.6083  -47.0743   42.7130
  4.270  -51.2402   48.0169  -44.2168   45.7394  -44.4799   45.8037  -48.1342   59.0412  -47.8201   41.2126  -48.0701   41.3051
  4.280  -52.6985   46.2168  -45.5886   44.4717  -45.8381   44.5031  -50.7114   57.2088  -48.6296   39.7546  -48.8790   39.8363
  4.290  -53.8972   44.2989  -46.7715   43.0771  -47.0038   43.0800  -52.9634   55.0933  -49.2598   38.2652  -49.5074   38.3376
  4.300  -54.8363   42.3124  -47.7585   41.5932  -47.9711   41.5725  -54.8628   52.7711  -49.7212   36.7707  -49.9665   36.8352
  4.310  -55.5252   40.3013  -48.5508   40.0555  -48.7423   40.0159  -56.4024   50.3173  -50.0279   35.2926  -50.2704   35.3506
  4.320  -55.9809   38.3034  -49.1562   38.4957  -49.3263   38.4414  -57.5909   47.8000  -50.1951   33.8476  -50.4349   33.9005
  4.330  -56.2251   36.3491  -49.5871   36.9407  -49.7362   36.8755  -58.4499   45.2774  -50.2390   32.4483  -50.4761   32.4971
  4.340  -56.2820   34.4615  -49.8592   35.4119  -49.9883   35.3392  -59.0089   42.7967  -50.1752   31.1035  -50.4098   31.1493
  4.350  -56.1765   32.6573  -49.9897   33.9260  -50.1000   33.8484  -59.3020   40.3939  -50.0185   29.8189  -50.2512   29.8624
  4.360  -55.9330   30.9470  -49.9961   32.4948  -50.0892   32.4145  -59.3648   38.0947  -49.7828   28.5978  -50.0139   28.6398
  4.370  -55.5743   29.3368  -49.8955   31.1265  -49.9728   31.0450  -59.2321   35.9160  -49.4805   27.4414  -49.7104   27.4824
  4.380  -55.1211   27.8287  -49.7037   29.8257  -49.7667   29.7443  -58.9364   33.8671  -49.1226   26.3496  -49.3518   26.3900
  4.390  -54.5917   26.4223  -49.4352   28.5947  -49.4855   28.5144  -58.5072   31.9522  -48.7187   25.3212  -48.9478   25.3614
  4.400  -54.0021   25.1148  -49.1030   27.4339  -49.1419   27.3552  -57.9704   30.1707  -48.2774   24.3542  -48.5067   24.3944
  4.410  -53.3658   23.9021  -48.7184   26.3421  -48.7470   26.2654  -57.3487   28.5195  -47.8058   23.4460  -48.0358   23.4864
  4.420  -52.6944   22.7794  -48.2913   25.3172  -48.3107   25.2427  -56.6612   26.9931  -47.3103   22.5940  -47.5413   22.6347
  4.430  -51.9975   21.7412  -47.8299   24.3565  -47.8411   24.2843  -55.9239   25.5847  -46.7960   21.7951  -47.0285   21.8362
  4.440  -51.2831   20.7818  -47.3415   23.4568  -47.3453   23.3868  -55.1504   24.2872  -46.2674   21.0463  -46.5017   21.0878
  4.450  -50.5576   19.8958  -46.8322   22.6147  -46.8292   22.5469  -54.3517   23.0927  -45.7284   20.3445  -45.9647   20.3865
  4.460  -49.8264   19.0775  -46.3069   21.8268  -46.2978   21.7611  -53.5366   21.9936  -45.1820   19.6870  -45.4207   19.7295
  4.470  -49.0937   18.3219  -45.7699   21.0897  -45.7552   21.0260  -52.7126   20.9826  -44.6309   19.0708  -44.8723   19.1137
  4.480  -48.3630   17.6239  -45.2248   20.4001  -45.2049   20.3381  -51.8854   20.0525  -44.0774   18.4933  -44.3216   18.5367
  4.490  -47.6370   16.9789  -44.6745   19.7549  -44.6496   19.6945  -51.0597   19.1966  -43.5231   17.9519  -43.7705   17.9958
  4.500  -46.9178   16.3827  -44.1213   19.1510  -44.0918   19.0919  -50.2391   18.4087  -42.9698   17.4444  -43.2205   17.4888
  4.510  -46.2070   15.8314  -43.5673   18.5856  -43.5334   18.5278  -49.4264   17.6832  -42.4185   16.9685  -42.6727   17.0132
  4.520  -45.5059   15.3213  -43.0141   18.0561  -42.9759   17.9993  -48.6239   17.0147  -41.8703   16.5221  -42.1283   16.5672
  4.530  -44.8153   14.8492  -42.4630   17.5601  -42.4207   17.5042  -47.8331   16.3985  -41.3259   16.1033  -41.5880   16.1489
  4.540  -44.1360   14.4120  -41.9150   17.0953  -41.8688   17.0401  -47.0553   15.8301  -40.7862   15.7104  -41.0524   15.7563
  4.550  -43.4683   14.0071  -41.3712   16.6596  -41.3209   16.6050  -46.2912   15.3056  -40.2515   15.3418  -40.5221   15.3880
  4.560  -42.8126   13.6319  -40.8321   16.2511  -40.7778   16.1969  -45.5416   14.8214  -39.7223   14.9959  -39.9976   15.0424
  4.570  -42.1690   13.2843  -40.2982   15.8681  -40.2401   15.8142  -44.8066   14.3742  -39.1989   14.6714  -39.4790   14.7182
  4.580  -41.5375   12.9620  -39.7701   15.5089  -39.7080   15.4552  -44.0864   13.9611  -38.6816   14.3670  -38.9667   14.4140
  4.590  -40.9180   12.6634  -39.2480   15.1720  -39.1818   15.1184  -43.3811   13.5793  -38.1704   14.0815  -38.4609   14.1287
  4.600  -40.3105   12.3866  -38.7322   14.8561  -38.6620   14.8025  -42.6906   13.2265  -37.6656   13.8139  -37.9616   13.8612
  4.610  -39.7148   12.1303  -38.2228   14.5599  -38.1484   14.5063  -42.0146   12.9005  -37.1672   13.5631  -37.4689   13.6106
  4.620  -39.1306   11.8929  -37.7200   14.2823  -37.6414   14.2285  -41.3530   12.5992  -36.6752   13.3282  -36.9829   13.3758
  4.630  -38.5577   11.6733  -37.2238   14.0222  -37.1408   13.9682  -40.7054   12.3210  -36.1896   13.1085  -36.5036   13.1562
  4.640  -37.9959   11.4704  -36.7343   13.7786  -36.6469   13.7243  -40.0715   12.0642  -35.7103   12.9032  -36.0309   12.9508
  4.650  -37.4449   11.2830  -36.2514   13.5507  -36.1594   13.4961  -39.4510   11.8274  -35.2375   12.7114  -35.5649   12.7590
  4.660  -36.9044   11.1102  -35.7752   13.3376  -35.6784   13.2827  -38.8434   11.6091  -34.7709   12.5327  -35.1054   12.5802
  4.670  -36.3741   10.9512  -35.3055   13.1386  -35.2039   13.0834  -38.2485   11.4083  -34.3106   12.3664  -34.6525   12.4137
  4.680  -35.8537   10.8053  -34.8424   12.9531  -34.7358   12.8975  -37.6658   11.2239  -33.8563   12.2120  -34.2060   12.2590
  4.690  -35.3431   10.6716  -34.3858   12.7803  -34.2739   12.7243  -37.0949   11.0548  -33.4082   12.0689  -33.7660   12.1156
  4.700  -34.8418   10.5497  -33.9355   12.6198  -33.8183   12.5634  -36.5355   10.9002  -32.9659   11.9368  -33.3322   11.9830
  4.710  -34.3496   10.4388  -33.4915   12.4709  -33.3687   12.4142  -35.9872   10.7593  -32.5295   11.8152  -32.9046   11.8608
  4.720  -33.8662   10.3385  -33.0538   12.3333  -32.9252   12.2762  -35.4497   10.6314  -32.0989   11.7037  -32.4832   11.7487
  4.730  -33.3915   10.2483  -32.6221   12.2064  -32.4875   12.1489  -34.9225   10.5157  -31.6739   11.6020  -32.0678   11.6462
  4.740  -32.9250   10.1678  -32.1965   12.0899  -32.0556   12.0321  -34.4053   10.4118  -31.2545   11.5098  -31.6584   11.5531
  4.750  -32.4667   10.0966  -31.7768   11.9833  -31.6294   11.9253  -33.8979   10.3191  -30.8405   11.4267  -31.2550   11.4689
  4.760  -32.0163   10.0343  -31.3629   11.8865  -31.2088   11.8282  -33.4000   10.2371  -30.4318   11.3527  -30.8573   11.3936
  4.770  -31.5736    9.9806  -30.9548   11.7989  -30.7937   11.7405  -32.9111   10.1653  -30.0285   11.2873  -30.4654   11.3267
  4.780  -31.1383    9.9352  -30.5523   11.7205  -30.3839   11.6620  -32.4311   10.1034  -29.6302   11.2304  -30.0793   11.2682
  4.790  -30.7103    9.8979  -30.1555   11.6508  -29.9794   11.5924  -31.9596   10.0511  -29.2371   11.1818  -29.6987   11.2177
  4.800  -30.2894    9.8683  -29.7641   11.5898  -29.5800   11.5314  -31.4964   10.0079  -28.8490   11.1414  -29.3238   11.1751
  4.810  -29.8754    9.8464  -29.3781   11.5370  -29.1857   11.4789  -31.0414    9.9737  -28.4658   11.1091  -28.9544   11.1402
  4.820  -29.4682    9.8318  -28.9975   11.4925  -28.7965   11.4347  -30.5941    9.9481  -28.0875   11.0846  -28.5905   11.1128
  4.830  -29.0676    9.8245  -28.6222   11.4560  -28.4121   11.3986  -30.1545    9.9311  -27.7139   11.0678  -28.2321   11.0929
  4.840  -28.6734    9.8242  -28.2521   11.4272  -28.0325   11.3705  -29.7223    9.9222  -27.3451   11.0588  -27.8792   11.0802
  4.850  -28.2856    9.8309  -27.8872   11.4062  -27.6577   11.3504  -29.2974    9.9215  -26.9810   11.0574  -27.5318   11.0747
  4.860  -27.9040    9.8444  -27.5274   11.3928  -27.2875   11.3380  -28.8795    9.9287  -26.6215   11.0636  -27.1897   11.0762
  4.870  -27.5285    9.8646  -27.1727   11.3868  -26.9220   11.3333  -28.4685    9.9438  -26.2665   11.0773  -26.8532   11.0847
  4.880  -27.1589    9.8913  -26.8231   11.3882  -26.5609   11.3362  -28.0642    9.9665  -25.9162   11.0985  -26.5221   11.1000
  4.890  -26.7952    9.9247  -26.4784   11.3969  -26.2044   11.3468  -27.6666    9.9969  -25.5703   11.1271  -26.1964   11.1221
  4.900  -26.4373    9.9644  -26.1388   11.4128  -25.8522   11.3649  -27.2754   10.0349  -25.2290   11.1633  -25.8763   11.1508
  4.910  -26.0851   10.0106  -25.8041   11.4358  -25.5044   11.3905  -26.8906   10.0804  -24.8922   11.2070  -25.5617   11.1862
  4.920  -25.7384   10.0631  -25.4743   11.4660  -25.1609   11.4236  -26.5121   10.1335  -24.5598   11.2583  -25.2527   11.2280
  4.930  -25.3972   10.1220  -25.1494   11.5032  -24.8216   11.4644  -26.1397   10.1941  -24.2319   11.3172  -24.9493   11.2764
  4.940  -25.0615   10.1872  -24.8295   11.5474  -24.4865   11.5127  -25.7734   10.2622  -23.9085   11.3837  -24.6516   11.3311
  4.950  -24.7311   10.2587  -24.5144   11.5988  -24.1556   11.5687  -25.4130   10.3378  -23.5897   11.4581  -24.3597   11.3921
  4.960  -24.4059   10.3366  -24.2042   11.6571  -23.8288   11.6324  -25.0586   10.4211  -23.2753   11.5403  -24.0735   11.4595
  4.970  -24.0859   10.4208  -23.8988   11.7226  -23.5061   11.7041  -24.7100   10.5122  -22.9655   11.6306  -23.7933   11.5330
  4.980  -23.7710   10.5116  -23.5983   11.7951  -23.1873   11.7837  -24.3672   10.6111  -22.6603   11.7291  -23.5190   11.6127
  4.990  -23.4610   10.6088  -23.3027   11.8749  -22.8726   11.8715  -24.0302   10.7179  -22.3598   11.8360  -23.2507   11.6984
  5.000  -23.1560   10.7128  -23.0120   11.9620  -22.5620   11.9678  -23.6990   10.8330  -22.0641   11.9516  -22.9885   11.7902
  5.010  -22.8559   10.8236  -22.7261   12.0565  -22.2553   12.0727  -23.3735   10.9564  -21.7732   12.0760  -22.7326   11.8880
  5.020  -22.5604   10.9415  -22.4452   12.1586  -21.9526   12.1865  -23.0538   11.0885  -21.4874   12.2096  -22.4829   11.9917
  5.030  -22.2698   11.0667  -22.1692   12.2685  -21.6540   12.3097  -22.7400   11.2296  -21.2067   12.3527  -22.2395   12.1014
  5.040  -21.9837   11.1995  -21.8982   12.3864  -21.3595   12.4427  -22.4321   11.3800  -20.9315   12.5058  -22.0026   12.2169
  5.050  -21.7024   11.3403  -21.6324   12.5126  -21.0693   12.5858  -22.1303   11.5401  -20.6619   12.6692  -21.7722   12.3382
  5.060  -21.4257   11.4897  -21.3717   12.6475  -20.7836   12.7397  -21.8348   11.7104  -20.3984   12.8434  -21.5484   12.4654
  5.070  -21.1538   11.6480  -21.1165   12.7914  -20.5025   12.9049  -21.5459   11.8915  -20.1413   13.0290  -21.3313   12.5984
  5.080  -20.8868   11.8160  -20.8669   12.9448  -20.2264   13.0822  -21.2640   12.0840  -19.8912   13.2265  -21.1210   12.7374
  5.090  -20.6250   11.9945  -20.6233   13.1083  -19.9558   13.2723  -20.9895   12.2884  -19.6488   13.4367  -20.9176   12.8823
  5.100  -20.3688   12.1841  -20.3862   13.2824  -19.6912   13.4760  -20.7231   12.5057  -19.4149   13.6600  -20.7212   13.0332
  5.110  -20.1188   12.3858  -20.1561   13.4678  -19.4334   13.6943  -20.4658   12.7364  -19.1905   13.8973  -20.5319   13.1904
  5.120  -19.8758   12.6006  -19.9338   13.6651  -19.1833   13.9280  -20.2184   12.9814  -18.9768   14.1490  -20.3500   13.3539
  5.130  -19.6409   12.8294  -19.7203   13.8749  -18.9422   14.1782  -19.9824   13.2415  -18.7752   14.4159  -20.1756   13.5241
  5.140  -19.4154   13.0733  -19.5167   14.0979  -18.7114   14.4456  -19.7593   13.5173  -18.5875   14.6983  -20.0091   13.7010
  5.150  -19.2009   13.3331  -19.3245   14.3347  -18.4927   14.7313  -19.5511   13.8093  -18.4156   14.9967  -19.8509   13.8852
  5.160  -18.9997   13.6094  -19.1453   14.5855  -18.2882   15.0359  -19.3600   14.1179  -18.2618   15.3109  -19.7015   14.0767
  5.170  -18.8140   13.9028  -18.9812   14.8506  -18.1003   15.3600  -19.1885   14.4431  -18.1286   15.6409  -19.5614   14.2761
  5.180  -18.6468   14.2132  -18.8342   15.1297  -17.9317   15.7039  -19.0394   14.7844  -18.0185   15.9859  -19.4314   14.4835
  5.190  -18.5010   14.5402  -18.7069   15.4224  -17.7854   16.0673  -18.9159   15.1409  -17.9346   16.3447  -19.3125   14.6993
  5.200  -18.3797   14.8825  -18.6015   15.7276  -17.6648   16.4498  -18.8209   15.5110  -17.8795   16.7158  -19.2058   14.9235
  5.210  -18.2863   15.2384  -18.5205   16.0438  -17.5735   16.8502  -18.7575   15.8922  -17.8561   17.0966  -19.1125   15.1564
  5.220  -18.2235   15.6052  -18.4662   16.3688  -17.5150   17.2665  -18.7285   16.2818  -17.8670   17.4843  -19.0341   15.3976
  5.230  -18.1941   15.9796  -18.4405   16.7001  -17.4929   17.6961  -18.7362   16.6758  -17.9142   17.8753  -18.9721   15.6468
  5.240  -18.1999   16.3578  -18.4449   17.0348  -17.5105   18.1358  -18.7822   17.0701  -17.9994   18.2655  -18.9282   15.9034
  5.250  -18.2421   16.7352  -18.4804   17.3694  -17.5706   18.5813  -18.8676   17.4599  -18.1233   18.6505  -18.9041   16.1663
  5.260  -18.3210   17.1075  -18.5474   17.7006  -17.6757   19.0279  -18.9921   17.8403  -18.2862   19.0256  -18.9014   16.4341
  5.270  -18.4359   17.4701  -18.6457   18.0248  -17.8273   19.4701  -19.1549   18.2066  -18.4872   19.3860  -18.9217   16.7052
  5.280  -18.5854   17.8187  -18.7744   18.3387  -18.0259   19.9021  -19.3541   18.5540  -18.7249   19.7271  -18.9663   16.9774
  5.290  -18.7674   18.1495  -18.9322   18.6392  -18.2712   20.3180  -19.5872   18.8784  -18.9968   20.0447  -19.0363   17.2485
  5.300  -18.9791   18.4593  -19.1176   18.9234  -18.5617   20.7118  -19.8508   19.1763  -19.3000   20.3349  -19.1322   17.5156
  5.310  -19.2177   18.7456  -19.3283   19.1891  -18.8951   21.0776  -20.1415   19.4448  -19.6310   20.5947  -19.2545   17.7762
  5.320  -19.4799   19.0063  -19.5624   19.4341  -19.2678   21.4104  -20.4552   19.6818  -19.9860   20.8215  -19.4028   18.0272
  5.330  -19.7625   19.2400  -19.8174   19.6568  -19.6755   21.7054  -20.7881   19.8859  -20.3609   21.0134  -19.5767   18.2658
  5.340  -20.0625   19.4460  -20.0911   19.8560  -20.1136   21.9588  -21.1362   20.0563  -20.7515   21.1693  -19.7750   18.4892
  5.350  -20.3770   19.6238  -20.3811   20.0304  -20.5765   22.1678  -21.4958   20.1928  -21.1540   21.2887  -19.9963   18.6947
  5.360  -20.7032   19.7731  -20.6851   20.1794  -21.0587   22.3302  -21.8634   20.2955  -21.5642   21.3714  -20.2387   18.8800
  5.370  -21.0387   19.8941  -21.0008   20.3025  -21.5544   22.4449  -22.2358   20.3652  -21.9787   21.4179  -20.5000   19.0430
  5.380  -21.3812   19.9870  -21.3259   20.3992  -22.0580   22.5118  -22.6102   20.4027  -22.3939   21.4291  -20.7779   19.1819
  5.390  -21.7286   20.0522  -21.6585   20.4693  -22.5642   22.5314  -22.9839   20.4090  -22.8067   21.4062  -21.0698   19.2954
  5.400  -22.0788   20.0901  -21.9962   20.5129  -23.0678   22.5049  -23.3546   20.3854  -23.2145   21.3504  -21.3729   19.3824
  5.410  -22.4301   20.1013  -22.3371   20.5301  -23.5643   22.4343  -23.7202   20.3332  -23.6146   21.2635  -21.6845   19.4423
  5.420  -22.7807   20.0862  -22.6791   20.5211  -24.0494   22.3217  -24.0789   20.2538  -24.0048   21.1471  -22.0020   19.4749
  5.430  -23.1289   20.0456  -23.0203   20.4865  -24.5197   22.1700  -24.4291   20.1487  -24.3833   21.0031  -22.3226   19.4801
  5.440  -23.4732   19.9801  -23.3589   20.4268  -24.9718   21.9820  -24.7693   20.0193  -24.7483   20.8334  -22.6438   19.4585
  5.450  -23.8119   19.8906  -23.6931   20.3426  -25.4033   21.7611  -25.0982   19.8670  -25.0985   20.6399  -22.9631   19.4105
  5.460  -24.1436   19.7778  -24.0212   20.2349  -25.8121   21.5105  -25.4147   19.6935  -25.4326   20.4244  -23.2784   19.3372
  5.470  -24.4668   19.6427  -24.3417   20.1046  -26.1966   21.2334  -25.7178   19.5000  -25.7496   20.1891  -23.5876   19.2396
  5.480  -24.7804   19.4863  -24.6530   19.9528  -26.5556   20.9331  -26.0067   19.2881  -26.0489   19.9357  -23.8889   19.1189
  5.490  -25.0829   19.3098  -24.9539   19.7805  -26.8885   20.6127  -26.2805   19.0594  -26.3297   19.6661  -24.1805   18.9765
  5.500  -25.3734   19.1142  -25.2430   19.5891  -27.1947   20.2755  -26.5388   18.8151  -26.5916   19.3823  -24.4612   18.8139
  5.510  -25.6506   18.9009  -25.5195   19.3799  -27.4743   19.9241  -26.7808   18.5570  -26.8345   19.0859  -24.7297   18.6327
  5.520  -25.9138   18.6712  -25.7823   19.1542  -27.7274   19.5614  -27.0064   18.2862  -27.0580   18.7787  -24.9850   18.4345
  5.530  -26.1622   18.4265  -26.0306   18.9134  -27.9545   19.1898  -27.2150   18.0044  -27.2624   18.4623  -25.2262   18.2208
  5.540  -26.3949   18.1680  -26.2638   18.6590  -28.1563   18.8116  -27.4067   17.7129  -27.4476   18.1382  -25.4529   17.9931
  5.550  -26.6117   17.8973  -26.4814   18.3924  -28.3335   18.4290  -27.5812   17.4131  -27.6139   17.8081  -25.6646   17.7532
  5.560  -26.8119   17.6158  -26.6830   18.1150  -28.4871   18.0438  -27.7386   17.1063  -27.7615   17.4732  -25.8609   17.5024
  5.570  -26.9954   17.3249  -26.8684   17.8281  -28.6181   17.6577  -27.8790   16.7939  -27.8910   17.1349  -26.0417   17.2422
  5.580  -27.1621   17.0261  -27.0375   17.5333  -28.7275   17.2722  -28.0026   16.4770  -28.0028   16.7944  -26.2070   16.9741
  5.590  -27.3119   16.7205  -27.1902   17.2317  -28.8165   16.8886  -28.1096   16.1568  -28.0974   16.4528  -26.3568   16.6992
  5.600  -27.4448   16.4097  -27.3267   16.9247  -28.8862   16.5080  -28.2005   15.8345  -28.1754   16.1112  -26.4914   16.4188
  5.610  -27.5611   16.0949  -27.4470   16.6135  -28.9378   16.1313  -28.2756   15.5111  -28.2374   15.7705  -26.6110   16.1342
  5.620  -27.6612   15.7772  -27.5517   16.2992  -28.9723   15.7594  -28.3355   15.1875  -28.2841   15.4316  -26.7158   15.8463
  5.630  -27.7452   15.4578  -27.6408   15.9829  -28.9909   15.3930  -28.3806   14.8648  -28.3162   15.0953  -26.8063   15.5561
  5.640  -27.8138   15.1377  -27.7150   15.6656  -28.9946   15.0326  -28.4115   14.5436  -28.3344   14.7623  -26.8829   15.2645
  5.650  -27.8673   14.8179  -27.7745   15.3481  -28.9845   14.6788  -28.4288   14.2248  -28.3393   14.4332  -26.9460   14.9725
  5.660  -27.9064   14.4993  -27.8200   15.0315  -28.9615   14.3317  -28.4332   13.9091  -28.3318   14.1085  -26.9962   14.6806
  5.670  -27.9317   14.1827  -27.8520   14.7163  -28.9265   13.9919  -28.4252   13.5970  -28.3124   13.7887  -27.0338   14.3897
  5.680  -27.9437   13.8688  -27.8711   14.4034  -28.8805   13.6594  -28.4056   13.2890  -28.2820   13.4742  -27.0595   14.1004
  5.690  -27.9431   13.5582  -27.8777   14.0934  -28.8244   13.3344  -28.3749   12.9857  -28.2411   13.1653  -27.0737   13.8131
  5.700  -27.9306   13.2517  -27.8726   13.7868  -28.7587   13.0171  -28.3339   12.6875  -28.1906   12.8624  -27.0770   13.5285
  5.710  -27.9068   12.9495  -27.8564   13.4841  -28.6845   12.7075  -28.2832   12.3946  -28.1309   12.5656  -27.0699   13.2470
  5.720  -27.8723   12.6522  -27.8296   13.1858  -28.6022   12.4055  -28.2234   12.1073  -28.0629   12.2752  -27.0530   12.9690
  5.730  -27.8280   12.3602  -27.7929   12.8922  -28.5126   12.1113  -28.1551   11.8260  -27.9870   11.9913  -27.0268   12.6948
  5.740  -27.7743   12.0737  -27.7468   12.6037  -28.4163   11.8247  -28.0790   11.5508  -27.9038   11.7140  -26.9917   12.4247
  5.750  -27.7119   11.7930  -27.6919   12.3205  -28.3138   11.5457  -27.9955   11.2817  -27.8140   11.4433  -26.9483   12.1590
  5.760  -27.6415   11.5183  -27.6289   12.0429  -28.2058   11.2743  -27.9054   11.0190  -27.7181   11.1793  -26.8971   11.8979
  5.770  -27.5636   11.2497  -27.5582   11.7710  -28.0926   11.0102  -27.8091   10.7627  -27.6165   10.9220  -26.8386   11.6416
  5.780  -27.4788   10.9874  -27.4804   11.5050  -27.9748   10.7535  -27.7071   10.5127  -27.5097   10.6713  -26.7732   11.3903
  5.790  -27.3877   10.7314  -27.3961   11.2449  -27.8528   10.5039  -27.5999   10.2692  -27.3983   10.4273  -26.7015   11.1441
  5.800  -27.2907   10.4818  -27.3057   10.9909  -27.7271   10.2614  -27.4880   10.0321  -27.2826   10.1898  -26.6238   10.9031
  5.810  -27.1884   10.2385  -27.2097   10.7430  -27.5979   10.0258  -27.3719    9.8013  -27.1630    9.9588  -26.5405   10.6673
  5.820  -27.0812   10.0016  -27.1086   10.5012  -27.4656    9.7970  -27.2518    9.5768  -27.0400    9.7342  -26.4522   10.4368
  5.830  -26.9695    9.7711  -27.0028   10.2655  -27.3307    9.5748  -27.1283    9.3585  -26.9139    9.5158  -26.3591   10.2117
  5.840  -26.8539    9.5468  -26.8927   10.0359  -27.1934    9.3590  -27.0016    9.1463  -26.7849    9.3036  -26.2616    9.9918
  5.850  -26.7346    9.3286  -26.7787    9.8123  -27.0539    9.1495  -26.8722    8.9401  -26.6535    9.0975  -26.1602    9.7773
  5.860  -26.6122    9.1166  -26.6612    9.5946  -26.9126    8.9462  -26.7403    8.7398  -26.5200    8.8973  -26.0551    9.5681
  5.870  -26.4868    8.9106  -26.5405    9.3829  -26.7697    8.7488  -26.6062    8.5452  -26.3845    8.7028  -25.9467    9.3641
  5.880  -26.3588    8.7105  -26.4169    9.1769  -26.6255    8.5573  -26.4702    8.3563  -26.2474    8.5140  -25.8352    9.1653
  5.890  -26.2286    8.5161  -26.2908    8.9766  -26.4801    8.3714  -26.3326    8.1729  -26.1089    8.3306  -25.7210    8.9717
  5.900  -26.0964    8.3273  -26.1625    8.7819  -26.3337    8.1910  -26.1936    7.9948  -25.9691    8.1527  -25.6043    8.7831
  5.910  -25.9624    8.1441  -26.0321    8.5927  -26.1866    8.0160  -26.0534    7.8220  -25.8284    7.9799  -25.4854    8.5994
  5.920  -25.8270    7.9662  -25.9001    8.4088  -26.0389    7.8461  -25.9122    7.6542  -25.6869    7.8121  -25.3646    8.4207
  5.930  -25.6903    7.7935  -25.7665    8.2301  -25.8908    7.6812  -25.7703    7.4913  -25.5448    7.6493  -25.2420    8.2467
  5.940  -25.5525    7.6259  -25.6316    8.0566  -25.7424    7.5212  -25.6277    7.3333  -25.4022    7.4912  -25.1178    8.0774
  5.950  -25.4139    7.4633  -25.4957    7.8880  -25.5939    7.3660  -25.4847    7.1799  -25.2592    7.3378  -24.9923    7.9128
  5.960  -25.2746    7.3054  -25.3588    7.7243  -25.4453    7.2153  -25.3413    7.0310  -25.1161    7.1888  -24.8657    7.7526
  5.970  -25.1348    7.1522  -25.2213    7.5652  -25.2969    7.0690  -25.1978    6.8865  -24.9729    7.0442  -24.7381    7.5967
  5.980  -24.9946    7.0035  -25.0832    7.4107  -25.1486    6.9270  -25.0543    6.7462  -24.8298    6.9037  -24.6096    7.4452
  5.990  -24.8542    6.8592  -24.9446    7.2607  -25.0006    6.7892  -24.9108    6.6100  -24.6868    6.7674  -24.4805    7.2978
  6.000  -24.7137    6.7192  -24.8058    7.1150  -24.8531    6.6554  -24.7674    6.4778  -24.5440    6.6349  -24.3509    7.1545
  6.010  -24.5732    6.5832  -24.6669    6.9735  -24.7060    6.5254  -24.6244    6.3494  -24.4017    6.5063  -24.2209    7.0150
  6.020  -24.4328    6.4512  -24.5279    6.8360  -24.5594    6.3993  -24.4817    6.2247  -24.2597    6.3814  -24.0906    6.8795
  6.030  -24.2926    6.3231  -24.3890    6.7024  -24.4134    6.2767  -24.3394    6.1037  -24.1182    6.2601  -23.9601    6.7476
  6.040  -24.1528    6.1987  -24.2502    6.5727  -24.2681    6.1577  -24.1976    5.9861  -23.9773    6.1421  -23.8296    6.6194
  6.050  -24.0133    6.0779  -24.1117    6.4467  -24.1236    6.0420  -24.0564    5.8718  -23.8369    6.0276  -23.6991    6.4947
  6.060  -23.8743    5.9605  -23.9736    6.3242  -23.9798    5.9296  -23.9158    5.7608  -23.6973    5.9162  -23.5686    6.3733
  6.070  -23.7358    5.8466  -23.8359    6.2052  -23.8368    5.8204  -23.7759    5.6530  -23.5584    5.8080  -23.4384    6.2553
  6.080  -23.5978    5.7358  -23.6986    6.0895  -23.6946    5.7143  -23.6367    5.5482  -23.4202    5.7027  -23.3085    6.1405
  6.090  -23.4606    5.6283  -23.5619    5.9770  -23.5534    5.6111  -23.4983    5.4463  -23.2828    5.6004  -23.1789    6.0288
  6.100  -23.3240    5.5237  -23.4258    5.8677  -23.4131    5.5107  -23.3607    5.3472  -23.1463    5.5009  -23.0497    5.9201
  6.110  -23.1881    5.4221  -23.2903    5.7614  -23.2737    5.4132  -23.2239    5.2509  -23.0106    5.4041  -22.9209    5.8144
  6.120  -23.0530    5.3233  -23.1555    5.6580  -23.1354    5.3183  -23.0880    5.1573  -22.8758    5.3100  -22.7926    5.7114
  6.130  -22.9187    5.2273  -23.0215    5.5575  -22.9980    5.2259  -22.9530    5.0661  -22.7420    5.2183  -22.6649    5.6112
  6.140  -22.7853    5.1339  -22.8882    5.4597  -22.8616    5.1361  -22.8190    4.9775  -22.6090    5.1292  -22.5378    5.5137
  6.150  -22.6527    5.0431  -22.7558    5.3646  -22.7263    5.0487  -22.6858    4.8912  -22.4771    5.0424  -22.4113    5.4187
  6.160  -22.5210    4.9547  -22.6241    5.2720  -22.5920    4.9636  -22.5536    4.8073  -22.3461    4.9579  -22.2855    5.3262
  6.170  -22.3902    4.8687  -22.4934    5.1819  -22.4588    4.8808  -22.4224    4.7256  -22.2161    4.8756  -22.1603    5.2361
  6.180  -22.2603    4.7850  -22.3635    5.0941  -22.3266    4.8001  -22.2922    4.6460  -22.0871    4.7955  -22.0359    5.1484
  6.190  -22.1314    4.7036  -22.2345    5.0087  -22.1955    4.7215  -22.1630    4.5685  -21.9591    4.7174  -21.9122    5.0629
  6.200  -22.0035    4.6243  -22.1064    4.9256  -22.0655    4.6450  -22.0347    4.4931  -21.8321    4.6413  -21.7893    4.9796
  6.210  -21.8765    4.5471  -21.9793    4.8445  -21.9366    4.5705  -21.9075    4.4196  -21.7061    4.5672  -21.6672    4.8984
  6.220  -21.7505    4.4719  -21.8531    4.7656  -21.8087    4.4978  -21.7813    4.3479  -21.5811    4.4950  -21.5459    4.8193
  6.230  -21.6255    4.3987  -21.7278    4.6887  -21.6820    4.4270  -21.6562    4.2781  -21.4572    4.4245  -21.4254    4.7421
  6.240  -21.5014    4.3274  -21.6035    4.6138  -21.5563    4.3579  -21.5320    4.2101  -21.3343    4.3558  -21.3058    4.6669
  6.250  -21.3784    4.2578  -21.4802    4.5408  -21.4317    4.2906  -21.4089    4.1437  -21.2124    4.2889  -21.1869    4.5936
  6.260  -21.2564    4.1901  -21.3579    4.4696  -21.3082    4.2250  -21.2868    4.0790  -21.0916    4.2235  -21.0690    4.5220
  6.270  -21.1353    4.1240  -21.2365    4.4001  -21.1858    4.1609  -21.1658    4.0160  -20.9718    4.1598  -20.9519    4.4522
  6.280  -21.0153    4.0596  -21.1161    4.3324  -21.0644    4.0985  -21.0457    3.9544  -20.8530    4.0976  -20.8357    4.3841
  6.290  -20.8963    3.9967  -20.9968    4.2664  -20.9442    4.0375  -20.9267    3.8944  -20.7352    4.0369  -20.7203    4.3177
  6.300  -20.7783    3.9355  -20.8784    4.2019  -20.8250    3.9780  -20.8087    3.8358  -20.6184    3.9776  -20.6058    4.2528
  6.310  -20.6613    3.8757  -20.7609    4.1390  -20.7068    3.9199  -20.6917    3.7786  -20.5027    3.9197  -20.4923    4.1895
  6.320  -20.5452    3.8173  -20.6445    4.0777  -20.5897    3.8632  -20.5757    3.7227  -20.3879    3.8632  -20.3795    4.1277
  6.330  -20.4302    3.7604  -20.5290    4.0177  -20.4736    3.8078  -20.4607    3.6682  -20.2741    3.8080  -20.2677    4.0673
  6.340  -20.3161    3.7048  -20.4145    3.9592  -20.3586    3.7537  -20.3467    3.6150  -20.1614    3.7541  -20.1568    4.0083
  6.350  -20.2031    3.6506  -20.3010    3.9021  -20.2446    3.7008  -20.2338    3.5630  -20.0496    3.7014  -20.0467    3.9507
  6.360  -20.0910    3.5976  -20.1885    3.8463  -20.1317    3.6492  -20.1217    3.5122  -19.9388    3.6499  -19.9375    3.8944
  6.370  -19.9799    3.5458  -20.0769    3.7918  -20.0197    3.5987  -20.0107    3.4625  -19.8290    3.5996  -19.8292    3.8394
  6.380  -19.8697    3.4953  -19.9662    3.7385  -19.9088    3.5494  -19.9006    3.4140  -19.7201    3.5504  -19.7218    3.7857
  6.390  -19.7605    3.4458  -19.8566    3.6865  -19.7988    3.5011  -19.7915    3.3666  -19.6122    3.5023  -19.6153    3.7331
  6.400  -19.6522    3.3976  -19.7478    3.6356  -19.6898    3.4540  -19.6834    3.3202  -19.5052    3.4552  -19.5096    3.6817
  6.410  -19.5449    3.3504  -19.6400    3.5859  -19.5818    3.4078  -19.5762    3.2749  -19.3992    3.4092  -19.4048    3.6315
  6.420  -19.4385    3.3042  -19.5332    3.5372  -19.4748    3.3627  -19.4699    3.2305  -19.2941    3.3641  -19.3008    3.5823
  6.430  -19.3331    3.2591  -19.4272    3.4897  -19.3687    3.3186  -19.3645    3.1872  -19.1899    3.3201  -19.1977    3.5343
  6.440  -19.2285    3.2150  -19.3222    3.4431  -19.2636    3.2754  -19.2601    3.1447  -19.0867    3.2770  -19.0954    3.4872
  6.450  -19.1249    3.1719  -19.2181    3.3976  -19.1594    3.2331  -19.1566    3.1032  -18.9843    3.2347  -18.9940    3.4412
  6.460  -19.0222    3.1297  -19.1148    3.3531  -19.0562    3.1917  -19.0540    3.0626  -18.8828    3.1934  -18.8935    3.3962
  6.470  -18.9204    3.0884  -19.0125    3.3095  -18.9538    3.1512  -18.9522    3.0228  -18.7823    3.1530  -18.7937    3.3521
  6.480  -18.8194    3.0480  -18.9111    3.2668  -18.8524    3.1115  -18.8514    2.9839  -18.6825    3.1133  -18.6948    3.3089
  6.490  -18.7193    3.0084  -18.8105    3.2251  -18.7518    3.0727  -18.7514    2.9458  -18.5837    3.0745  -18.5967    3.2666
  6.500  -18.6201    2.9697  -18.7108    3.1842  -18.6522    3.0346  -18.6523    2.9084  -18.4857    3.0365  -18.4994    3.2252
  6.510  -18.5218    2.9317  -18.6119    3.1441  -18.5534    2.9973  -18.5541    2.8718  -18.3886    2.9992  -18.4029    3.1847
  6.520  -18.4242    2.8946  -18.5139    3.1049  -18.4555    2.9608  -18.4567    2.8360  -18.2922    2.9627  -18.3072    3.1450
  6.530  -18.3276    2.8583  -18.4168    3.0665  -18.3584    2.9250  -18.3601    2.8009  -18.1968    2.9270  -18.2123    3.1061
  6.540  -18.2317    2.8226  -18.3204    3.0288  -18.2622    2.8899  -18.2643    2.7665  -18.1021    2.8919  -18.1182    3.0679
  6.550  -18.1367    2.7877  -18.2249    2.9919  -18.1668    2.8555  -18.1694    2.7328  -18.0082    2.8575  -18.0249    3.0306
  6.560  -18.0425    2.7535  -18.1302    2.9558  -18.0722    2.8218  -18.0753    2.6998  -17.9152    2.8238  -17.9323    2.9939
  6.570  -17.9491    2.7200  -18.0363    2.9203  -17.9785    2.7887  -17.9820    2.6674  -17.8229    2.7907  -17.8405    2.9580
  6.580  -17.8565    2.6872  -17.9433    2.8856  -17.8856    2.7563  -17.8894    2.6357  -17.7314    2.7583  -17.7494    2.9228
  6.590  -17.7646    2.6550  -17.8509    2.8515  -17.7934    2.7245  -17.7977    2.6045  -17.6407    2.7265  -17.6591    2.8883
  6.600  -17.6736    2.6234  -17.7594    2.8181  -17.7021    2.6933  -17.7067    2.5740  -17.5508    2.6953  -17.5695    2.8544
  6.610  -17.5833    2.5924  -17.6687    2.7853  -17.6115    2.6627  -17.6165    2.5440  -17.4616    2.6646  -17.4807    2.8212
  6.620  -17.4937    2.5620  -17.5787    2.7532  -17.5217    2.6326  -17.5270    2.5146  -17.3732    2.6346  -17.3926    2.7886
  6.630  -17.4049    2.5323  -17.4894    2.7217  -17.4327    2.6031  -17.4383    2.4858  -17.2855    2.6051  -17.3052    2.7566
  6.640  -17.3169    2.5030  -17.4009    2.6907  -17.3444    2.5742  -17.3503    2.4575  -17.1985    2.5761  -17.2185    2.7252
  6.650  -17.2296    2.4744  -17.3131    2.6603  -17.2568    2.5458  -17.2631    2.4297  -17.1122    2.5477  -17.1325    2.6944
  6.660  -17.1430    2.4462  -17.2261    2.6305  -17.1700    2.5179  -17.1765    2.4024  -17.0267    2.5198  -17.0471    2.6642
  6.670  -17.0571    2.4186  -17.1398    2.6013  -17.0839    2.4905  -17.0907    2.3757  -16.9418    2.4924  -16.9625    2.6345
  6.680  -16.9719    2.3915  -17.0542    2.5726  -16.9985    2.4636  -17.0056    2.3494  -16.8577    2.4654  -16.8786    2.6054
  6.690  -16.8875    2.3649  -16.9692    2.5444  -16.9139    2.4371  -16.9212    2.3236  -16.7742    2.4390  -16.7953    2.5768
  6.700  -16.8037    2.3388  -16.8850    2.5167  -16.8299    2.4112  -16.8374    2.2982  -16.6914    2.4130  -16.7127    2.5487
  6.710  -16.7206    2.3131  -16.8015    2.4895  -16.7466    2.3857  -16.7544    2.2734  -16.6093    2.3875  -16.6307    2.5211
  6.720  -16.6381    2.2879  -16.7186    2.4627  -16.6640    2.3606  -16.6720    2.2489  -16.5279    2.3624  -16.5494    2.4939
  6.730  -16.5564    2.2632  -16.6365    2.4365  -16.5821    2.3360  -16.5903    2.2249  -16.4471    2.3377  -16.4687    2.4673
  6.740  -16.4753    2.2389  -16.5549    2.4107  -16.5008    2.3118  -16.5092    2.2013  -16.3669    2.3135  -16.3887    2.4411
  6.750  -16.3948    2.2150  -16.4741    2.3853  -16.4202    2.2880  -16.4288    2.1781  -16.2874    2.2897  -16.3093    2.4154
  6.760  -16.3150    2.1915  -16.3938    2.3604  -16.3402    2.2646  -16.3490    2.1553  -16.2085    2.2662  -16.2305    2.3901
  6.770  -16.2358    2.1685  -16.3143    2.3360  -16.2609    2.2416  -16.2698    2.1329  -16.1303    2.2432  -16.1523    2.3653
  6.780  -16.1573    2.1458  -16.2353    2.3119  -16.1822    2.2190  -16.1913    2.1108  -16.0526    2.2206  -16.0748    2.3408
  6.790  -16.0793    2.1235  -16.1570    2.2882  -16.1041    2.1968  -16.1134    2.0892  -15.9756    2.1983  -15.9978    2.3168
  6.800  -16.0020    2.1016  -16.0793    2.2650  -16.0266    2.1749  -16.0361    2.0679  -15.8992    2.1764  -15.9214    2.2932
  6.810  -15.9253    2.0801  -16.0022    2.2421  -15.9498    2.1534  -15.9594    2.0469  -15.8233    2.1549  -15.8456    2.2700
  6.820  -15.8492    2.0589  -15.9257    2.2196  -15.8735    2.1322  -15.8833    2.0263  -15.7481    2.1337  -15.7704    2.2471
  6.830  -15.7736    2.0381  -15.8498    2.1975  -15.7979    2.1114  -15.8078    2.0061  -15.6734    2.1128  -15.6958    2.2247
  6.840  -15.6987    2.0177  -15.7744    2.1757  -15.7228    2.0909  -15.7328    1.9862  -15.5993    2.0923  -15.6217    2.2026
  6.850  -15.6243    1.9975  -15.6997    2.1543  -15.6483    2.0708  -15.6585    1.9665  -15.5258    2.0721  -15.5482    2.1808
  6.860  -15.5505    1.9777  -15.6256    2.1332  -15.5744    2.0509  -15.5847    1.9473  -15.4529    2.0522  -15.4752    2.1594
  6.870  -15.4773    1.9582  -15.5520    2.1125  -15.5011    2.0314  -15.5114    1.9283  -15.3805    2.0326  -15.4028    2.1384
  6.880  -15.4046    1.9391  -15.4789    2.0921  -15.4283    2.0122  -15.4388    1.9096  -15.3086    2.0134  -15.3310    2.1177
  6.890  -15.3325    1.9202  -15.4065    2.0720  -15.3561    1.9933  -15.3666    1.8912  -15.2373    1.9944  -15.2596    2.0973
  6.900  -15.2609    1.9016  -15.3345    2.0523  -15.2844    1.9746  -15.2950    1.8731  -15.1665    1.9757  -15.1888    2.0772
  6.910  -15.1899    1.8834  -15.2631    2.0328  -15.2133    1.9563  -15.2240    1.8553  -15.0962    1.9574  -15.1186    2.0575
  6.920  -15.1194    1.8654  -15.1923    2.0137  -15.1427    1.9382  -15.1535    1.8378  -15.0265    1.9392  -15.0488    2.0380
  6.930  -15.0494    1.8477  -15.1220    1.9948  -15.0726    1.9204  -15.0835    1.8205  -14.9573    1.9214  -14.9796    2.0189
  6.940  -14.9799    1.8302  -15.0522    1.9762  -15.0030    1.9029  -15.0140    1.8035  -14.8886    1.9039  -14.9108    2.0000
  6.950  -14.9110    1.8131  -14.9829    1.9580  -14.9340    1.8856  -14.9450    1.7868  -14.8204    1.8866  -14.8426    1.9814
  6.960  -14.8425    1.7962  -14.9141    1.9399  -14.8655    1.8686  -14.8766    1.7703  -14.7527    1.8695  -14.7748    1.9631
  6.970  -14.7746    1.7795  -14.8459    1.9222  -14.7974    1.8519  -14.8086    1.7540  -14.6855    1.8527  -14.7076    1.9451
  6.980  -14.7071    1.7632  -14.7781    1.9047  -14.7299    1.8354  -14.7411    1.7380  -14.6188    1.8362  -14.6408    1.9274
  6.990  -14.6402    1.7470  -14.7109    1.8875  -14.6629    1.8191  -14.6742    1.7223  -14.5525    1.8199  -14.5745    1.9099
  7.000  -14.5737    1.7311  -14.6441    1.8706  -14.5963    1.8031  -14.6077    1.7067  -14.4868    1.8038  -14.5087    1.8927
  7.010  -14.5077    1.7154  -14.5778    1.8539  -14.5303    1.7873  -14.5417    1.6915  -14.4215    1.7880  -14.4434    1.8757
  7.020  -14.4422    1.7000  -14.5120    1.8374  -14.4647    1.7717  -14.4761    1.6764  -14.3567    1.7723  -14.3785    1.8590
  7.030  -14.3772    1.6848  -14.4466    1.8212  -14.3996    1.7563  -14.4110    1.6615  -14.2923    1.7570  -14.3141    1.8425
  7.040  -14.3126    1.6698  -14.3818    1.8052  -14.3349    1.7412  -14.3464    1.6469  -14.2284    1.7418  -14.2501    1.8263
  7.050  -14.2485    1.6551  -14.3174    1.7894  -14.2707    1.7263  -14.2823    1.6324  -14.1650    1.7268  -14.1866    1.8103
  7.060  -14.1848    1.6405  -14.2534    1.7739  -14.2070    1.7116  -14.2186    1.6182  -14.1020    1.7121  -14.1235    1.7945
  7.070  -14.1216    1.6262  -14.1899    1.7585  -14.1437    1.6971  -14.1553    1.6042  -14.0394    1.6975  -14.0609    1.7789
  7.080  -14.0588    1.6120  -14.1269    1.7434  -14.0808    1.6828  -14.0925    1.5904  -13.9773    1.6832  -13.9987    1.7636
  7.090  -13.9965    1.5981  -14.0642    1.7285  -14.0184    1.6687  -14.0301    1.5767  -13.9156    1.6691  -13.9369    1.7485
  7.100  -13.9345    1.5844  -14.0021    1.7139  -13.9565    1.6548  -13.9682    1.5633  -13.8543    1.6551  -13.8756    1.7336
  7.110  -13.8731    1.5708  -13.9403    1.6994  -13.8949    1.6410  -13.9066    1.5501  -13.7935    1.6414  -13.8146    1.7189
  7.120  -13.8120    1.5574  -13.8790    1.6851  -13.8338    1.6275  -13.8455    1.5370  -13.7330    1.6278  -13.7541    1.7044
  7.130  -13.7514    1.5443  -13.8181    1.6710  -13.7731    1.6141  -13.7849    1.5241  -13.6730    1.6144  -13.6940    1.6900
  7.140  -13.6912    1.5313  -13.7577    1.6571  -13.7128    1.6010  -13.7246    1.5114  -13.6134    1.6012  -13.6343    1.6759
  7.150  -13.6313    1.5185  -13.6976    1.6434  -13.6530    1.5880  -13.6647    1.4988  -13.5542    1.5882  -13.5750    1.6620
  7.160  -13.5719    1.5058  -13.6379    1.6299  -13.5935    1.5751  -13.6053    1.4865  -13.4954    1.5753  -13.5161    1.6483
  7.170  -13.5129    1.4934  -13.5787    1.6165  -13.5344    1.5625  -13.5462    1.4743  -13.4370    1.5626  -13.4576    1.6348
  7.180  -13.4543    1.4811  -13.5199    1.6034  -13.4758    1.5500  -13.4876    1.4622  -13.3789    1.5501  -13.3995    1.6214
  7.190  -13.3961    1.4690  -13.4614    1.5904  -13.4175    1.5377  -13.4293    1.4503  -13.3213    1.5377  -13.3418    1.6082
  7.200  -13.3383    1.4570  -13.4034    1.5776  -13.3596    1.5255  -13.3714    1.4386  -13.2641    1.5255  -13.2845    1.5952
  7.210  -13.2808    1.4452  -13.3457    1.5649  -13.3021    1.5135  -13.3139    1.4271  -13.2072    1.5135  -13.2275    1.5824
  7.220  -13.2238    1.4335  -13.2884    1.5525  -13.2450    1.5017  -13.2568    1.4156  -13.1507    1.5016  -13.1709    1.5697
  7.230  -13.1671    1.4220  -13.2315    1.5401  -13.1883    1.4899  -13.2001    1.4044  -13.0946    1.4899  -13.1147    1.5572
  7.240  -13.1108    1.4107  -13.1750    1.5280  -13.1319    1.4784  -13.1437    1.3933  -13.0388    1.4783  -13.0588    1.5448
  7.250  -13.0548    1.3995  -13.1188    1.5160  -13.0759    1.4670  -13.0877    1.3823  -12.9834    1.4668  -13.0033    1.5327
  7.260  -12.9993    1.3884  -13.0630    1.5041  -13.0203    1.4557  -13.0321    1.3715  -12.9283    1.4555  -12.9482    1.5206
  7.270  -12.9440    1.3775  -13.0076    1.4924  -12.9650    1.4446  -12.9768    1.3608  -12.8737    1.4444  -12.8934    1.5088
  7.280  -12.8892    1.3668  -12.9525    1.4809  -12.9101    1.4336  -12.9219    1.3502  -12.8193    1.4334  -12.8390    1.4970
  7.290  -12.8347    1.3561  -12.8978    1.4695  -12.8555    1.4228  -12.8673    1.3398  -12.7653    1.4225  -12.7849    1.4855
  7.300  -12.7805    1.3456  -12.8435    1.4582  -12.8013    1.4121  -12.8131    1.3295  -12.7117    1.4118  -12.7312    1.4740
  7.310  -12.7267    1.3353  -12.7894    1.4471  -12.7475    1.4015  -12.7592    1.3193  -12.6584    1.4011  -12.6778    1.4628
  7.320  -12.6732    1.3251  -12.7358    1.4361  -12.6939    1.3911  -12.7057    1.3093  -12.6054    1.3907  -12.6247    1.4516
  7.330  -12.6201    1.3150  -12.6825    1.4252  -12.6407    1.3807  -12.6525    1.2994  -12.5528    1.3803  -12.5720    1.4406
  7.340  -12.5673    1.3050  -12.6295    1.4145  -12.5879    1.3705  -12.5997    1.2896  -12.5005    1.3701  -12.5196    1.4297
  7.350  -12.5148    1.2951  -12.5768    1.4040  -12.5354    1.3605  -12.5471    1.2799  -12.4485    1.3600  -12.4675    1.4190
  7.360  -12.4626    1.2854  -12.5245    1.3935  -12.4832    1.3505  -12.4949    1.2704  -12.3968    1.3500  -12.4158    1.4084
  7.370  -12.4108    1.2758  -12.4725    1.3832  -12.4313    1.3407  -12.4431    1.2610  -12.3455    1.3402  -12.3643    1.3979
  7.380  -12.3593    1.2663  -12.4208    1.3730  -12.3798    1.3310  -12.3915    1.2517  -12.2945    1.3304  -12.3132    1.3876
  7.390  -12.3081    1.2569  -12.3695    1.3629  -12.3285    1.3214  -12.3403    1.2425  -12.2438    1.3208  -12.2624    1.3774
  7.400  -12.2573    1.2477  -12.3185    1.3529  -12.2776    1.3119  -12.2893    1.2334  -12.1934    1.3113  -12.2119    1.3673
  7.410  -12.2067    1.2385  -12.2678    1.3431  -12.2270    1.3026  -12.2387    1.2244  -12.1433    1.3019  -12.1618    1.3573
  7.420  -12.1565    1.2295  -12.2174    1.3334  -12.1767    1.2933  -12.1884    1.2155  -12.0935    1.2926  -12.1119    1.3474
  7.430  -12.1065    1.2206  -12.1673    1.3238  -12.1267    1.2841  -12.1384    1.2068  -12.0440    1.2834  -12.0623    1.3377
  7.440  -12.0569    1.2118  -12.1175    1.3143  -12.0771    1.2751  -12.0887    1.1981  -11.9948    1.2744  -12.0130    1.3281
  7.450  -12.0075    1.2031  -12.0680    1.3049  -12.0277    1.2662  -12.0393    1.1895  -11.9459    1.2654  -11.9640    1.3186
  7.460  -11.9585    1.1945  -12.0188    1.2956  -11.9786    1.2573  -11.9902    1.1811  -11.8973    1.2565  -11.9153    1.3092
  7.470  -11.9097    1.1860  -11.9699    1.2865  -11.9298    1.2486  -11.9414    1.1727  -11.8490    1.2478  -11.8669    1.2999
  7.480  -11.8613    1.1776  -11.9213    1.2774  -11.8813    1.2400  -11.8929    1.1645  -11.8010    1.2391  -11.8188    1.2907
  7.490  -11.8131    1.1693  -11.8730    1.2685  -11.8330    1.2315  -11.8446    1.1563  -11.7532    1.2306  -11.7710    1.2816
  7.500  -11.7652    1.1610  -11.8250    1.2596  -11.7851    1.2230  -11.7967    1.1483  -11.7058    1.2221  -11.7234    1.2727
  7.510  -11.7176    1.1529  -11.7772    1.2509  -11.7374    1.2147  -11.7490    1.1403  -11.6586    1.2137  -11.6761    1.2638
  7.520  -11.6702    1.1449  -11.7298    1.2422  -11.6901    1.2064  -11.7016    1.1324  -11.6117    1.2055  -11.6291    1.2550
  7.530  -11.6232    1.1370  -11.6826    1.2337  -11.6430    1.1983  -11.6545    1.1246  -11.5650    1.1973  -11.5824    1.2464
  7.540  -11.5764    1.1292  -11.6357    1.2252  -11.5961    1.1902  -11.6076    1.1169  -11.5187    1.1892  -11.5359    1.2378
  7.550  -11.5299    1.1214  -11.5891    1.2169  -11.5496    1.1823  -11.5611    1.1093  -11.4726    1.1812  -11.4897    1.2294
  7.560  -11.4836    1.1138  -11.5427    1.2086  -11.5033    1.1744  -11.5147    1.1018  -11.4267    1.1733  -11.4438    1.2210
  7.570  -11.4376    1.1062  -11.4966    1.2005  -11.4572    1.1666  -11.4687    1.0944  -11.3811    1.1655  -11.3981    1.2127
  7.580  -11.3919    1.0988  -11.4508    1.1924  -11.4115    1.1589  -11.4229    1.0870  -11.3358    1.1578  -11.3527    1.2045
  7.590  -11.3464    1.0914  -11.4052    1.1844  -11.3659    1.1513  -11.3774    1.0798  -11.2907    1.1501  -11.3076    1.1965
  7.600  -11.3012    1.0841  -11.3599    1.1765  -11.3207    1.1438  -11.3321    1.0726  -11.2459    1.1426  -11.2627    1.1885
  7.610  -11.2562    1.0768  -11.3149    1.1687  -11.2757    1.1363  -11.2871    1.0655  -11.2013    1.1351  -11.2180    1.1805
  7.620  -11.2115    1.0697  -11.2701    1.1610  -11.2309    1.1290  -11.2423    1.0585  -11.1570    1.1277  -11.1736    1.1727
  7.630  -11.1671    1.0627  -11.2255    1.1533  -11.1864    1.1217  -11.1978    1.0515  -11.1130    1.1204  -11.1295    1.1650
  7.640  -11.1229    1.0557  -11.1812    1.1458  -11.1422    1.1145  -11.1536    1.0447  -11.0691    1.1132  -11.0855    1.1574
  7.650  -11.0789    1.0488  -11.1372    1.1383  -11.0982    1.1074  -11.1095    1.0379  -11.0255    1.1060  -11.0419    1.1498
  7.660  -11.0352    1.0420  -11.0934    1.1309  -11.0544    1.1003  -11.0657    1.0312  -10.9822    1.0989  -10.9984    1.1423
  7.670  -10.9917    1.0352  -11.0498    1.1236  -11.0109    1.0933  -11.0222    1.0245  -10.9391    1.0920  -10.9552    1.1349
  7.680  -10.9484    1.0285  -11.0065    1.1164  -10.9676    1.0865  -10.9789    1.0180  -10.8962    1.0850  -10.9123    1.1276
  7.690  -10.9054    1.0220  -10.9635    1.1092  -10.9245    1.0796  -10.9358    1.0115  -10.8535    1.0782  -10.8695    1.1204
  7.700  -10.8626    1.0154  -10.9206    1.1022  -10.8817    1.0729  -10.8930    1.0051  -10.8111    1.0714  -10.8270    1.1132
  7.710  -10.8200    1.0090  -10.8780    1.0952  -10.8391    1.0662  -10.8504    0.9987  -10.7689    1.0647  -10.7848    1.1062
  7.720  -10.7777    1.0026  -10.8356    1.0883  -10.7967    1.0596  -10.8080    0.9924  -10.7270    1.0581  -10.7427    1.0992
  7.730  -10.7356    0.9963  -10.7935    1.0814  -10.7545    1.0531  -10.7658    0.9862  -10.6852    1.0515  -10.7009    1.0922
  7.740  -10.6937    0.9901  -10.7515    1.0746  -10.7126    1.0466  -10.7239    0.9801  -10.6437    1.0451  -10.6593    1.0854
  7.750  -10.6520    0.9839  -10.7098    1.0679  -10.6709    1.0403  -10.6822    0.9740  -10.6024    1.0386  -10.6179    1.0786
  7.760  -10.6106    0.9778  -10.6684    1.0613  -10.6294    1.0339  -10.6407    0.9680  -10.5613    1.0323  -10.5767    1.0719
  7.770  -10.5693    0.9718  -10.6271    1.0548  -10.5881    1.0277  -10.5994    0.9621  -10.5204    1.0260  -10.5357    1.0653
  7.780  -10.5283    0.9658  -10.5860    1.0483  -10.5471    1.0215  -10.5583    0.9562  -10.4797    1.0198  -10.4950    1.0587
  7.790  -10.4875    0.9599  -10.5452    1.0419  -10.5062    1.0154  -10.5175    0.9504  -10.4392    1.0137  -10.4545    1.0523
  7.800  -10.4469    0.9541  -10.5046    1.0355  -10.4656    1.0094  -10.4768    0.9447  -10.3990    1.0076  -10.4141    1.0458
  7.810  -10.4065    0.9483  -10.4642    1.0292  -10.4251    1.0034  -10.4364    0.9390  -10.3589    1.0016  -10.3740    1.0395
  7.820  -10.3663    0.9426  -10.4240    1.0230  -10.3849    0.9975  -10.3961    0.9334  -10.3191    0.9956  -10.3341    1.0332
  7.830  -10.3263    0.9370  -10.3840    1.0169  -10.3449    0.9916  -10.3561    0.9278  -10.2794    0.9897  -10.2943    1.0270
  7.840  -10.2865    0.9314  -10.3442    1.0108  -10.3050    0.9858  -10.3163    0.9223  -10.2400    0.9839  -10.2548    1.0209
  7.850  -10.2469    0.9259  -10.3046    1.0048  -10.2654    0.9801  -10.2766    0.9169  -10.2007    0.9782  -10.2155    1.0148
  7.860  -10.2075    0.9204  -10.2653    0.9988  -10.2260    0.9744  -10.2372    0.9115  -10.1617    0.9725  -10.1763    1.0088
  7.870  -10.1683    0.9151  -10.2261    0.9929  -10.1867    0.9688  -10.1980    0.9062  -10.1228    0.9668  -10.1374    1.0028
  7.880  -10.1293    0.9097  -10.1871    0.9871  -10.1477    0.9633  -10.1589    0.9009  -10.0841    0.9612  -10.0986    0.9970
  7.890  -10.0905    0.9044  -10.1483    0.9813  -10.1088    0.9578  -10.1201    0.8958  -10.0456    0.9557  -10.0601    0.9911
  7.900  -10.0519    0.8992  -10.1097    0.9756  -10.0701    0.9523  -10.0814    0.8906  -10.0073    0.9503  -10.0217    0.9854
  7.910  -10.0134    0.8941  -10.0713    0.9699  -10.0316    0.9470  -10.0429    0.8855   -9.9692    0.9449   -9.9835    0.9797
  7.920   -9.9751    0.8890  -10.0331    0.9644   -9.9933    0.9417  -10.0046    0.8805   -9.9313    0.9395   -9.9455    0.9741
  7.930   -9.9371    0.8839   -9.9950    0.9588   -9.9552    0.9364   -9.9665    0.8755   -9.8935    0.9342   -9.9077    0.9685
  7.940   -9.8992    0.8789   -9.9572    0.9533   -9.9173    0.9312   -9.9285    0.8706   -9.8559    0.9290   -9.8700    0.9630
  7.950   -9.8614    0.8740   -9.9195    0.9479   -9.8795    0.9261   -9.8908    0.8658   -9.8185    0.9238   -9.8325    0.9575
  7.960   -9.8239    0.8691   -9.8820    0.9426   -9.8419    0.9210   -9.8532    0.8610   -9.7813    0.9187   -9.7952    0.9521
  7.970   -9.7865    0.8643   -9.8447    0.9373   -9.8045    0.9160   -9.8158    0.8562   -9.7442    0.9137   -9.7581    0.9468
  7.980   -9.7493    0.8596   -9.8076    0.9320   -9.7672    0.9110   -9.7786    0.8515   -9.7073    0.9087   -9.7212    0.9415
  7.990   -9.7122    0.8548   -9.7706    0.9268   -9.7301    0.9061   -9.7415    0.8469   -9.6706    0.9037   -9.6844    0.9363
  8.000   -9.6754    0.8502   -9.7338    0.9217   -9.6932    0.9012   -9.7046    0.8423   -9.6340    0.8988   -9.6477    0.9312
  8.010   -9.6387    0.8456   -9.6972    0.9166   -9.6565    0.8964   -9.6679    0.8377   -9.5976    0.8940   -9.6113    0.9260
  8.020   -9.6021    0.8410   -9.6608    0.9116   -9.6199    0.8917   -9.6313    0.8333   -9.5614    0.8892   -9.5750    0.9210
  8.030   -9.5657    0.8365   -9.6245    0.9066   -9.5835    0.8870   -9.5949    0.8288   -9.5253    0.8844   -9.5389    0.9160
  8.040   -9.5295    0.8321   -9.5884    0.9017   -9.5472    0.8823   -9.5587    0.8244   -9.4894    0.8797   -9.5029    0.9111
  8.050   -9.4934    0.8277   -9.5524    0.8969   -9.5111    0.8777   -9.5226    0.8201   -9.4537    0.8751   -9.4671    0.9062
  8.060   -9.4575    0.8234   -9.5167    0.8920   -9.4752    0.8732   -9.4866    0.8158   -9.4181    0.8705   -9.4314    0.9014
  8.070   -9.4218    0.8191   -9.4810    0.8873   -9.4394    0.8687   -9.4509    0.8116   -9.3826    0.8660   -9.3959    0.8966
  8.080   -9.3862    0.8148   -9.4456    0.8826   -9.4037    0.8643   -9.4153    0.8074   -9.3473    0.8615   -9.3605    0.8919
  8.090   -9.3507    0.8107   -9.4103    0.8779   -9.3682    0.8599   -9.3798    0.8033   -9.3122    0.8571   -9.3253    0.8872
  8.100   -9.3154    0.8065   -9.3751    0.8733   -9.3329    0.8556   -9.3445    0.7992   -9.2772    0.8527   -9.2903    0.8826
  8.110   -9.2802    0.8024   -9.3401    0.8688   -9.2977    0.8513   -9.3093    0.7952   -9.2423    0.8484   -9.2553    0.8781
  8.120   -9.2452    0.7984   -9.3053    0.8642   -9.2626    0.8471   -9.2743    0.7912   -9.2076    0.8441   -9.2206    0.8736
  8.130   -9.2103    0.7944   -9.2706    0.8598   -9.2277    0.8429   -9.2394    0.7873   -9.1731    0.8399   -9.1859    0.8691
  8.140   -9.1756    0.7905   -9.2360    0.8554   -9.1929    0.8388   -9.2046    0.7834   -9.1386    0.8357   -9.1515    0.8647
  8.150   -9.1410    0.7866   -9.2016    0.8510   -9.1582    0.8347   -9.1700    0.7796   -9.1043    0.8316   -9.1171    0.8604
  8.160   -9.1065    0.7828   -9.1673    0.8467   -9.1237    0.8307   -9.1356    0.7758   -9.0702    0.8275   -9.0829    0.8561
  8.170   -9.0722    0.7790   -9.1332    0.8425   -9.0894    0.8267   -9.1012    0.7721   -9.0361    0.8235   -9.0488    0.8518
  8.180   -9.0379    0.7753   -9.0992    0.8383   -9.0551    0.8228   -9.0670    0.7684   -9.0022    0.8195   -9.0148    0.8477
  8.190   -9.0039    0.7716   -9.0654    0.8341   -9.0210    0.8189   -9.0330    0.7647   -8.9685    0.8156   -8.9810    0.8435
  8.200   -8.9699    0.7680   -9.0317    0.8300   -8.9870    0.8151   -8.9990    0.7612   -8.9348    0.8117   -8.9473    0.8394
  8.210   -8.9361    0.7644   -8.9981    0.8259   -8.9531    0.8113   -8.9652    0.7576   -8.9013    0.8079   -8.9138    0.8354
  8.220   -8.9024    0.7609   -8.9647    0.8219   -8.9194    0.8076   -8.9315    0.7541   -8.8679    0.8041   -8.8803    0.8314
  8.230   -8.8688    0.7574   -8.9313    0.8179   -8.8858    0.8040   -8.8980    0.7507   -8.8347    0.8004   -8.8470    0.8275
  8.240   -8.8353    0.7540   -8.8982    0.8140   -8.8523    0.8004   -8.8645    0.7473   -8.8015    0.7967   -8.8138    0.8236
  8.250   -8.8020    0.7506   -8.8651    0.8102   -8.8189    0.7968   -8.8312    0.7440   -8.7685    0.7931   -8.7807    0.8198
  8.260   -8.7688    0.7473   -8.8322    0.8063   -8.7856    0.7933   -8.7980    0.7407   -8.7356    0.7895   -8.7477    0.8160
  8.270   -8.7356    0.7440   -8.7994    0.8026   -8.7525    0.7898   -8.7649    0.7375   -8.7028    0.7860   -8.7149    0.8123
  8.280   -8.7026    0.7408   -8.7667    0.7988   -8.7194    0.7864   -8.7320    0.7343   -8.6701    0.7825   -8.6821    0.8087
  8.290   -8.6697    0.7376   -8.7341    0.7952   -8.6865    0.7831   -8.6991    0.7311   -8.6375    0.7791   -8.6495    0.8051
  8.300   -8.6369    0.7345   -8.7017    0.7915   -8.6536    0.7798   -8.6663    0.7281   -8.6050    0.7757   -8.6170    0.8015
  8.310   -8.6042    0.7314   -8.6694    0.7879   -8.6209    0.7765   -8.6337    0.7250   -8.5726    0.7724   -8.5845    0.7980
  8.320   -8.5716    0.7284   -8.6371    0.7844   -8.5883    0.7733   -8.6011    0.7220   -8.5404    0.7691   -8.5522    0.7945
  8.330   -8.5391    0.7254   -8.6050    0.7809   -8.5557    0.7702   -8.5687    0.7191   -8.5082    0.7659   -8.5200    0.7911
  8.340   -8.5067    0.7225   -8.5730    0.7775   -8.5233    0.7671   -8.5363    0.7162   -8.4761    0.7628   -8.4879    0.7878
  8.350   -8.4744    0.7197   -8.5412    0.7741   -8.4909    0.7641   -8.5041    0.7134   -8.4441    0.7596   -8.4558    0.7845
  8.360   -8.4422    0.7169   -8.5094    0.7708   -8.4587    0.7611   -8.4719    0.7106   -8.4123    0.7566   -8.4239    0.7813
  8.370   -8.4101    0.7142   -8.4777    0.7675   -8.4265    0.7582   -8.4399    0.7079   -8.3805    0.7536   -8.3921    0.7781
  8.380   -8.3780    0.7115   -8.4461    0.7642   -8.3944    0.7554   -8.4079    0.7053   -8.3488    0.7506   -8.3603    0.7750
  8.390   -8.3461    0.7088   -8.4147    0.7610   -8.3624    0.7526   -8.3760    0.7027   -8.3171    0.7477   -8.3286    0.7719
  8.400   -8.3142    0.7063   -8.3833    0.7579   -8.3305    0.7498   -8.3442    0.7001   -8.2856    0.7449   -8.2971    0.7689
  8.410   -8.2824    0.7038   -8.3520    0.7548   -8.2987    0.7472   -8.3125    0.6976   -8.2541    0.7421   -8.2656    0.7659
  8.420   -8.2507    0.7013   -8.3208    0.7518   -8.2669    0.7445   -8.2808    0.6952   -8.2228    0.7394   -8.2341    0.7630
  8.430   -8.2190    0.6989   -8.2897    0.7488   -8.2352    0.7420   -8.2493    0.6928   -8.1915    0.7367   -8.2028    0.7602
  8.440   -8.1874    0.6966   -8.2587    0.7458   -8.2036    0.7395   -8.2178    0.6905   -8.1602    0.7341   -8.1715    0.7574
  8.450   -8.1559    0.6943   -8.2278    0.7429   -8.1720    0.7371   -8.1864    0.6883   -8.1291    0.7315   -8.1403    0.7547
  8.460   -8.1244    0.6921   -8.1969    0.7401   -8.1405    0.7347   -8.1550    0.6861   -8.0980    0.7290   -8.1092    0.7521
  8.470   -8.0930    0.6900   -8.1662    0.7373   -8.1091    0.7324   -8.1237    0.6839   -8.0669    0.7266   -8.0781    0.7495
  8.480   -8.0617    0.6880   -8.1355    0.7346   -8.0777    0.7302   -8.0925    0.6819   -8.0360    0.7242   -8.0471    0.7470
  8.490   -8.0304    0.6860   -8.1049    0.7319   -8.0464    0.7280   -8.0613    0.6799   -8.0050    0.7219   -8.0161    0.7445
  8.500   -7.9992    0.6840   -8.0744    0.7293   -8.0151    0.7259   -8.0302    0.6780   -7.9742    0.7197   -7.9852    0.7421
  8.510   -7.9680    0.6822   -8.0439    0.7267   -7.9839    0.7239   -7.9992    0.6761   -7.9434    0.7175   -7.9544    0.7398
  8.520   -7.9368    0.6804   -8.0135    0.7242   -7.9527    0.7220   -7.9682    0.6743   -7.9126    0.7154   -7.9236    0.7376
  8.530   -7.9057    0.6787   -7.9832    0.7218   -7.9215    0.7201   -7.9372    0.6726   -7.8819    0.7134   -7.8928    0.7354
  8.540   -7.8747    0.6771   -7.9530    0.7194   -7.8904    0.7183   -7.9063    0.6710   -7.8512    0.7114   -7.8621    0.7333
  8.550   -7.8436    0.6755   -7.9228    0.7171   -7.8593    0.7166   -7.8754    0.6694   -7.8206    0.7095   -7.8314    0.7312
  8.560   -7.8126    0.6741   -7.8926    0.7148   -7.8283    0.7150   -7.8446    0.6679   -7.7900    0.7077   -7.8008    0.7293
  8.570   -7.7816    0.6727   -7.8626    0.7126   -7.7973    0.7135   -7.8138    0.6665   -7.7594    0.7060   -7.7702    0.7274
  8.580   -7.7507    0.6714   -7.8325    0.7105   -7.7663    0.7121   -7.7830    0.6652   -7.7289    0.7044   -7.7396    0.7256
  8.590   -7.7197    0.6702   -7.8026    0.7084   -7.7353    0.7107   -7.7523    0.6640   -7.6984    0.7028   -7.7090    0.7239
  8.600   -7.6888    0.6691   -7.7726    0.7064   -7.7043    0.7095   -7.7215    0.6629   -7.6678    0.7013   -7.6785    0.7223
  8.610   -7.6578    0.6681   -7.7428    0.7044   -7.6733    0.7083   -7.6908    0.6618   -7.6374    0.6999   -7.6480    0.7208
  8.620   -7.6269    0.6672   -7.7129    0.7026   -7.6424    0.7073   -7.6601    0.6609   -7.6069    0.6986   -7.6175    0.7194
  8.630   -7.5960    0.6664   -7.6831    0.7008   -7.6114    0.7064   -7.6294    0.6600   -7.5764    0.6974   -7.5870    0.7180
  8.640   -7.5650    0.6657   -7.6533    0.6991   -7.5804    0.7055   -7.5988    0.6593   -7.5459    0.6963   -7.5564    0.7168
  8.650   -7.5341    0.6652   -7.6236    0.6974   -7.5494    0.7048   -7.5681    0.6587   -7.5155    0.6953   -7.5259    0.7157
  8.660   -7.5031    0.6647   -7.5939    0.6958   -7.5184    0.7042   -7.5374    0.6582   -7.4850    0.6944   -7.4954    0.7147
  8.670   -7.4721    0.6644   -7.5642    0.6944   -7.4874    0.7038   -7.5067    0.6578   -7.4545    0.6937   -7.4649    0.7138
  8.680   -7.4411    0.6642   -7.5345    0.6930   -7.4563    0.7034   -7.4759    0.6575   -7.4240    0.6930   -7.4343    0.7130
  8.690   -7.4100    0.6641   -7.5049    0.6916   -7.4252    0.7032   -7.4452    0.6573   -7.3934    0.6925   -7.4038    0.7123
  8.700   -7.3789    0.6642   -7.4752    0.6904   -7.3941    0.7032   -7.4144    0.6573   -7.3628    0.6920   -7.3732    0.7118
  8.710   -7.3477    0.6645   -7.4456    0.6893   -7.3629    0.7033   -7.3836    0.6575   -7.3322    0.6918   -7.3425    0.7114
  8.720   -7.3165    0.6648   -7.4159    0.6882   -7.3316    0.7036   -7.3528    0.6577   -7.3016    0.6916   -7.3118    0.7111
  8.730   -7.2853    0.6654   -7.3863    0.6873   -7.3003    0.7040   -7.3219    0.6582   -7.2709    0.6916   -7.2811    0.7110
  8.740   -7.2539    0.6661   -7.3566    0.6865   -7.2689    0.7046   -7.2909    0.6587   -7.2401    0.6918   -7.2503    0.7110
  8.750   -7.2225    0.6670   -7.3270    0.6857   -7.2375    0.7054   -7.2600    0.6595   -7.2093    0.6921   -7.2195    0.7112
  8.760   -7.1910    0.6681   -7.2973    0.6851   -7.2060    0.7063   -7.2289    0.6604   -7.1784    0.6926   -7.1885    0.7116
  8.770   -7.1594    0.6694   -7.2676    0.6846   -7.1743    0.7075   -7.1978    0.6616   -7.1474    0.6932   -7.1575    0.7121
  8.780   -7.1277    0.6710   -7.2379    0.6842   -7.1426    0.7089   -7.1665    0.6629   -7.1163    0.6941   -7.1265    0.7128
  8.790   -7.0959    0.6727   -7.2081    0.6840   -7.1108    0.7106   -7.1353    0.6644   -7.0852    0.6951   -7.0953    0.7138
  8.800   -7.0640    0.6747   -7.1783    0.6838   -7.0788    0.7124   -7.1039    0.6662   -7.0539    0.6963   -7.0640    0.7149
  8.810   -7.0319    0.6769   -7.1485    0.6838   -7.0467    0.7146   -7.0724    0.6682   -7.0226    0.6978   -7.0326    0.7163
  8.820   -6.9997    0.6794   -7.1186    0.6840   -7.0145    0.7170   -7.0408    0.6704   -6.9911    0.6995   -7.0011    0.7179
  8.830   -6.9674    0.6822   -7.0886    0.6843   -6.9822    0.7197   -7.0091    0.6729   -6.9595    0.7015   -6.9695    0.7197
  8.840   -6.9349    0.6853   -7.0586    0.6848   -6.9497    0.7227   -6.9772    0.6757   -6.9277    0.7037   -6.9377    0.7218
  8.850   -6.9023    0.6887   -7.0285    0.6854   -6.9170    0.7260   -6.9452    0.6788   -6.8959    0.7062   -6.9058    0.7242
  8.860   -6.8694    0.6925   -6.9984    0.6862   -6.8841    0.7297   -6.9131    0.6822   -6.8638    0.7089   -6.8738    0.7269
  8.870   -6.8364    0.6967   -6.9682    0.6872   -6.8511    0.7338   -6.8808    0.6860   -6.8316    0.7121   -6.8415    0.7299
  8.880   -6.8032    0.7012   -6.9378    0.6884   -6.8179    0.7382   -6.8484    0.6901   -6.7992    0.7155   -6.8091    0.7332
  8.890   -6.7698    0.7062   -6.9074    0.6898   -6.7844    0.7431   -6.8158    0.6946   -6.7666    0.7193   -6.7765    0.7369
  8.900   -6.7361    0.7116   -6.8768    0.6914   -6.7508    0.7485   -6.7830    0.6995   -6.7338    0.7235   -6.7437    0.7410
  8.910   -6.7022    0.7175   -6.8462    0.6933   -6.7169    0.7543   -6.7500    0.7048   -6.7008    0.7281   -6.7107    0.7455
  8.920   -6.6681    0.7239   -6.8154    0.6954   -6.6828    0.7607   -6.7169    0.7106   -6.6676    0.7332   -6.6775    0.7505
  8.930   -6.6337    0.7309   -6.7845    0.6977   -6.6484    0.7676   -6.6835    0.7170   -6.6342    0.7387   -6.6441    0.7559
  8.940   -6.5991    0.7385   -6.7534    0.7003   -6.6138    0.7752   -6.6499    0.7239   -6.6005    0.7448   -6.6104    0.7619
  8.950   -6.5642    0.7468   -6.7222    0.7032   -6.5789    0.7834   -6.6161    0.7313   -6.5665    0.7514   -6.5764    0.7684
  8.960   -6.5290    0.7558   -6.6909    0.7065   -6.5438    0.7924   -6.5821    0.7394   -6.5323    0.7586   -6.5422    0.7755
  8.970   -6.4935    0.7655   -6.6593    0.7100   -6.5083    0.8021   -6.5478    0.7482   -6.4978    0.7664   -6.5077    0.7833
  8.980   -6.4577    0.7761   -6.6276    0.7140   -6.4726    0.8127   -6.5133    0.7578   -6.4631    0.7750   -6.4730    0.7917
  8.990   -6.4216    0.7876   -6.5957    0.7182   -6.4366    0.8241   -6.4786    0.7681   -6.4280    0.7843   -6.4379    0.8010
  9.000   -6.3852    0.8001   -6.5636    0.7229   -6.4003    0.8366   -6.4436    0.7793   -6.3927    0.7944   -6.4026    0.8110
  9.010   -6.3485    0.8136   -6.5312    0.7281   -6.3637    0.8501   -6.4085    0.7914   -6.3570    0.8055   -6.3669    0.8219
  9.020   -6.3116    0.8283   -6.4987    0.7337   -6.3269    0.8648   -6.3730    0.8046   -6.3211    0.8174   -6.3310    0.8338
  9.030   -6.2743    0.8442   -6.4659    0.7398   -6.2898    0.8808   -6.3374    0.8188   -6.2848    0.8305   -6.2948    0.8468
  9.040   -6.2368    0.8615   -6.4328    0.7464   -6.2524    0.8981   -6.3016    0.8343   -6.2483    0.8447   -6.2582    0.8609
  9.050   -6.1990    0.8803   -6.3995    0.7536   -6.2149    0.9169   -6.2657    0.8510   -6.2115    0.8601   -6.2215    0.8762
  9.060   -6.1611    0.9008   -6.3660    0.7614   -6.1772    0.9374   -6.2296    0.8692   -6.1744    0.8769   -6.1844    0.8929
  9.070   -6.1230    0.9230   -6.3322    0.7699   -6.1394    0.9596   -6.1934    0.8889   -6.1372    0.8952   -6.1472    0.9111
  9.080   -6.0848    0.9471   -6.2981    0.7792   -6.1016    0.9838   -6.1572    0.9102   -6.0997    0.9151   -6.1098    0.9309
  9.090   -6.0466    0.9734   -6.2637    0.7892   -6.0638    1.0101   -6.1211    0.9334   -6.0621    0.9368   -6.0722    0.9525
  9.100   -6.0085    1.0020   -6.2290    0.8000   -6.0261    1.0387   -6.0851    0.9585   -6.0245    0.9604   -6.0347    0.9760
  9.110   -5.9707    1.0331   -6.1940    0.8118   -5.9888    1.0698   -6.0494    0.9857   -5.9869    0.9861   -5.9971    1.0016
  9.120   -5.9332    1.0670   -6.1587    0.8245   -5.9520    1.1036   -6.0141    1.0152   -5.9495    1.0141   -5.9598    1.0295
  9.130   -5.8964    1.1038   -6.1232    0.8384   -5.9159    1.1403   -5.9794    1.0472   -5.9124    1.0446   -5.9227    1.0599
  9.140   -5.8605    1.1438   -6.0873    0.8534   -5.8807    1.1802   -5.9455    1.0819   -5.8758    1.0778   -5.8862    1.0930
  9.150   -5.8257    1.1873   -6.0512    0.8697   -5.8468    1.2235   -5.9127    1.1194   -5.8399    1.1139   -5.8503    1.1290
  9.160   -5.7925    1.2345   -6.0148    0.8873   -5.8146    1.2704   -5.8813    1.1599   -5.8050    1.1532   -5.8155    1.1682
  9.170   -5.7614    1.2856   -5.9783    0.9065   -5.7846    1.3210   -5.8516    1.2036   -5.7715    1.1958   -5.7821    1.2107
  9.180   -5.7328    1.3409   -5.9415    0.9274   -5.7572    1.3757   -5.8242    1.2506   -5.7397    1.2420   -5.7504    1.2568
  9.190   -5.7075    1.4005   -5.9046    0.9500   -5.7332    1.4345   -5.7995    1.3010   -5.7102    1.2919   -5.7210    1.3066
  9.200   -5.6862    1.4646   -5.8677    0.9746   -5.7132    1.4974   -5.7781    1.3548   -5.6835    1.3458   -5.6944    1.3603
  9.210   -5.6697    1.5330   -5.8307    1.0013   -5.6982    1.5644   -5.7606    1.4121   -5.6603    1.4036   -5.6713    1.4179
  9.220   -5.6591    1.6058   -5.7940    1.0303   -5.6890    1.6353   -5.7479    1.4726   -5.6414    1.4653   -5.6525    1.4795
  9.230   -5.6555    1.6824   -5.7574    1.0619   -5.6867    1.7098   -5.7408    1.5360   -5.6276    1.5308   -5.6388    1.5448
  9.240   -5.6600    1.7625   -5.7214    1.0962   -5.6924    1.7870   -5.7399    1.6018   -5.6199    1.5997   -5.6312    1.6135
  9.250   -5.6738    1.8450   -5.6860    1.1335   -5.7070    1.8663   -5.7463    1.6693   -5.6191    1.6715   -5.6306    1.6851
  9.260   -5.6981    1.9288   -5.6514    1.1740   -5.7317    1.9464   -5.7605    1.7376   -5.6264    1.7454   -5.6379    1.7587
  9.270   -5.7339    2.0123   -5.6182    1.2180   -5.7671    2.0256   -5.7832    1.8055   -5.6424    1.8204   -5.6541    1.8334
  9.280   -5.7818    2.0935   -5.5865    1.2657   -5.8139    2.1023   -5.8149    1.8716   -5.6680    1.8949   -5.6798    1.9077
  9.290   -5.8423    2.1701   -5.5569    1.3174   -5.8722    2.1742   -5.8555    1.9343   -5.7036    1.9675   -5.7155    1.9800
  9.300   -5.9151    2.2397   -5.5299    1.3732   -5.9416    2.2392   -5.9048    1.9918   -5.7492    2.0363   -5.7613    2.0485
  9.310   -5.9992    2.2995   -5.5062    1.4333   -6.0212    2.2949   -5.9620    2.0427   -5.8045    2.0994   -5.8166    2.1112
  9.320   -6.0932    2.3472   -5.4865    1.4979   -6.1093    2.3392   -6.0259    2.0853   -5.8684    2.1550   -5.8806    2.1663
  9.330   -6.1946    2.3806   -5.4718    1.5669   -6.2040    2.3706   -6.0950    2.1185   -5.9397    2.2013   -5.9519    2.2123
  9.340   -6.3006    2.3983   -5.4629    1.6402   -6.3027    2.3877   -6.1674    2.1415   -6.0165    2.2373   -6.0288    2.2478
  9.350   -6.4081    2.3997   -5.4611    1.7175   -6.4025    2.3902   -6.2412    2.1543   -6.0968    2.2623   -6.1090    2.2723
  9.360   -6.5137    2.3849   -5.4674    1.7982   -6.5009    2.3784   -6.3146    2.1571   -6.1785    2.2761   -6.1907    2.2856
  9.370   -6.6145    2.3551   -5.4831    1.8815   -6.5952    2.3531   -6.3858    2.1506   -6.2597    2.2792   -6.2717    2.2882
  9.380   -6.7080    2.3119   -5.5094    1.9662   -6.6834    2.3159   -6.4537    2.1359   -6.3389    2.2725   -6.3506    2.2809
  9.390   -6.7922    2.2576   -5.5473    2.0508   -6.7639    2.2685   -6.5175    2.1144   -6.4147    2.2570   -6.4261    2.2650
  9.400   -6.8661    2.1947   -5.5976    2.1333   -6.8357    2.2130   -6.5767    2.0872   -6.4865    2.2340   -6.4976    2.2415
  9.410   -6.9292    2.1254   -5.6608    2.2114   -6.8984    2.1512   -6.6315    2.0553   -6.5539    2.2045   -6.5646    2.2116
  9.420   -6.9815    2.0521   -5.7368    2.2825   -6.9519    2.0849   -6.6818    2.0197   -6.6169    2.1695   -6.6271    2.1762
  9.430   -7.0236    1.9764   -5.8248    2.3440   -6.9965    2.0155   -6.7281    1.9809   -6.6754    2.1296   -6.6851    2.1360
  9.440   -7.0563    1.9000   -5.9234    2.3932   -7.0328    1.9445   -6.7707    1.9392   -6.7295    2.0852   -6.7387    2.0914
  9.450   -7.0803    1.8239   -6.0303    2.4278   -7.0612    1.8726   -6.8096    1.8946   -6.7792    2.0367   -6.7878    2.0427
  9.460   -7.0966    1.7489   -6.1427    2.4461   -7.0822    1.8007   -6.8449    1.8474   -6.8243    1.9842   -6.8324    1.9902
  9.470   -7.1061    1.6757   -6.2574    2.4471   -7.0966    1.7294   -6.8763    1.7974   -6.8644    1.9281   -6.8720    1.9340
  9.480   -7.1095    1.6046   -6.3709    2.4307   -7.1047    1.6592   -6.9038    1.7448   -6.8993    1.8687   -6.9064    1.8746
  9.490   -7.1075    1.5359   -6.4799    2.3976   -7.1071    1.5905   -6.9267    1.6900   -6.9284    1.8065   -6.9351    1.8125
  9.500   -7.1006    1.4697   -6.5814    2.3494   -7.1043    1.5237   -6.9449    1.6333   -6.9515    1.7422   -6.9577    1.7483
  9.510   -7.0894    1.4064   -6.6730    2.2884   -7.0966    1.4591   -6.9581    1.5754   -6.9684    1.6765   -6.9743    1.6829
  9.520   -7.0745    1.3459   -6.7532    2.2171   -7.0845    1.3971   -6.9661    1.5168   -6.9790    1.6104   -6.9846    1.6169
  9.530   -7.0562    1.2884   -6.8211    2.1381   -7.0686    1.3377   -6.9691    1.4583   -6.9836    1.5447   -6.9889    1.5514
  9.540   -7.0350    1.2338   -6.8762    2.0540   -7.0493    1.2813   -6.9672    1.4005   -6.9824    1.4800   -6.9875    1.4869
  9.550   -7.0114    1.1823   -6.9191    1.9672   -7.0271    1.2279   -6.9607    1.3439   -6.9759    1.4170   -6.9808    1.4242
  9.560   -6.9857    1.1338   -6.9504    1.8797   -7.0024    1.1775   -6.9500    1.2890   -6.9647    1.3564   -6.9694    1.3637
  9.570   -6.9582    1.0883   -6.9710    1.7932   -6.9757    1.1302   -6.9356    1.2362   -6.9493    1.2983   -6.9539    1.3058
  9.580   -6.9294    1.0456   -6.9821    1.7089   -6.9474    1.0858   -6.9179    1.1858   -6.9303    1.2432   -6.9348    1.2509
  9.590   -6.8994    1.0056   -6.9849    1.6276   -6.9177    1.0443   -6.8974    1.1379   -6.9082    1.1911   -6.9127    1.1990
  9.600   -6.8687    0.9682   -6.9806    1.5501   -6.8871    1.0056   -6.8746    1.0927   -6.8837    1.1421   -6.8880    1.1501
  9.610   -6.8373    0.9334   -6.9703    1.4768   -6.8557    0.9695   -6.8498    1.0500   -6.8571    1.0962   -6.8614    1.1043
  9.620   -6.8056    0.9008   -6.9549    1.4077   -6.8239    0.9358   -6.8235    1.0099   -6.8290    1.0532   -6.8332    1.0615
  9.630   -6.7736    0.8704   -6.9354    1.3430   -6.7917    0.9045   -6.7960    0.9724   -6.7995    1.0131   -6.8038    1.0216
  9.640   -6.7415    0.8421   -6.9126    1.2826   -6.7594    0.8753   -6.7675    0.9373   -6.7692    0.9758   -6.7735    0.9843
  9.650   -6.7094    0.8156   -6.8870    1.2263   -6.7271    0.8481   -6.7382    0.9044   -6.7382    0.9410   -6.7425    0.9496
  9.660   -6.6775    0.7909   -6.8594    1.1739   -6.6949    0.8227   -6.7085    0.8737   -6.7068    0.9086   -6.7111    0.9173
  9.670   -6.6457    0.7678   -6.8301    1.1253   -6.6628    0.7989   -6.6785    0.8450   -6.6751    0.8785   -6.6794    0.8872
  9.680   -6.6141    0.7462   -6.7996    1.0802   -6.6310    0.7768   -6.6483    0.8182   -6.6434    0.8504   -6.6476    0.8592
  9.690   -6.5829    0.7260   -6.7682    1.0383   -6.5995    0.7561   -6.6180    0.7932   -6.6116    0.8242   -6.6159    0.8331
  9.700   -6.5520    0.7070   -6.7362    0.9994   -6.5683    0.7367   -6.5878    0.7697   -6.5800    0.7999   -6.5843    0.8088
  9.710   -6.5214    0.6893   -6.7038    0.9633   -6.5375    0.7185   -6.5576    0.7478   -6.5485    0.7771   -6.5528    0.7860
  9.720   -6.4912    0.6725   -6.6712    0.9298   -6.5070    0.7015   -6.5277    0.7273   -6.5173    0.7558   -6.5216    0.7648
  9.730   -6.4613    0.6568   -6.6385    0.8986   -6.4769    0.6855   -6.4979    0.7080   -6.4864    0.7359   -6.4908    0.7449
  9.740   -6.4319    0.6420   -6.6059    0.8696   -6.4473    0.6704   -6.4685    0.6899   -6.4559    0.7173   -6.4602    0.7263
  9.750   -6.4029    0.6281   -6.5735    0.8426   -6.4181    0.6562   -6.4393    0.6730   -6.4257    0.6998   -6.4300    0.7089
  9.760   -6.3742    0.6149   -6.5413    0.8174   -6.3892    0.6428   -6.4104    0.6570   -6.3959    0.6834   -6.4002    0.6925
  9.770   -6.3460    0.6025   -6.5093    0.7939   -6.3608    0.6301   -6.3819    0.6420   -6.3665    0.6680   -6.3708    0.6771
  9.780   -6.3181    0.5907   -6.4777    0.7719   -6.3328    0.6182   -6.3537    0.6278   -6.3374    0.6535   -6.3418    0.6626
  9.790   -6.2907    0.5796   -6.4465    0.7513   -6.3052    0.6068   -6.3258    0.6144   -6.3088    0.6399   -6.3132    0.6489
  9.800   -6.2636    0.5690   -6.4156    0.7321   -6.2779    0.5961   -6.2983    0.6018   -6.2806    0.6270   -6.2850    0.6361
  9.810   -6.2369    0.5590   -6.3852    0.7140   -6.2511    0.5859   -6.2711    0.5899   -6.2528    0.6148   -6.2572    0.6239
  9.820   -6.2106    0.5495   -6.3551    0.6970   -6.2246    0.5762   -6.2443    0.5785   -6.2254    0.6033   -6.2298    0.6123
  9.830   -6.1846    0.5404   -6.3255    0.6810   -6.1985    0.5670   -6.2179    0.5678   -6.1983    0.5924   -6.2027    0.6014
  9.840   -6.1590    0.5317   -6.2964    0.6660   -6.1728    0.5582   -6.1918    0.5576   -6.1717    0.5821   -6.1761    0.5911
  9.850   -6.1337    0.5235   -6.2676    0.6518   -6.1474    0.5498   -6.1660    0.5480   -6.1454    0.5722   -6.1498    0.5812
  9.860   -6.1088    0.5156   -6.2393    0.6385   -6.1223    0.5418   -6.1405    0.5387   -6.1195    0.5629   -6.1239    0.5719
  9.870   -6.0842    0.5081   -6.2113    0.6258   -6.0976    0.5342   -6.1154    0.5300   -6.0939    0.5540   -6.0984    0.5630
  9.880   -6.0599    0.5009   -6.1838    0.6138   -6.0732    0.5269   -6.0906    0.5216   -6.0688    0.5456   -6.0732    0.5545
  9.890   -6.0359    0.4940   -6.1567    0.6025   -6.0491    0.5199   -6.0662    0.5136   -6.0439    0.5375   -6.0483    0.5464
  9.900   -6.0122    0.4874   -6.1300    0.5917   -6.0253    0.5132   -6.0420    0.5060   -6.0194    0.5298   -6.0238    0.5387
  9.910   -5.9888    0.4811   -6.1037    0.5815   -6.0019    0.5067   -6.0181    0.4987   -5.9952    0.5224   -5.9996    0.5313
  9.920   -5.9656    0.4750   -6.0777    0.5718   -5.9786    0.5006   -5.9945    0.4917   -5.9713    0.5153   -5.9757    0.5242
  9.930   -5.9428    0.4692   -6.0521    0.5626   -5.9557    0.4946   -5.9712    0.4851   -5.9477    0.5086   -5.9521    0.5174
  9.940   -5.9202    0.4636   -6.0269    0.5538   -5.9331    0.4889   -5.9482    0.4786   -5.9244    0.5021   -5.9289    0.5109
  9.950   -5.8979    0.4581   -6.0020    0.5453   -5.9107    0.4834   -5.9254    0.4725   -5.9014    0.4959   -5.9059    0.5047
  9.960   -5.8758    0.4529   -5.9775    0.5373   -5.8885    0.4781   -5.9029    0.4666   -5.8787    0.4899   -5.8831    0.4987
  9.970   -5.8539    0.4479   -5.9533    0.5296   -5.8666    0.4729   -5.8807    0.4609   -5.8562    0.4842   -5.8607    0.4929
  9.980   -5.8323    0.4430   -5.9294    0.5223   -5.8450    0.4680   -5.8587    0.4554   -5.8340    0.4786   -5.8385    0.4874
  9.990   -5.8110    0.4384   -5.9058    0.5153   -5.8235    0.4632   -5.8369    0.4501   -5.8121    0.4733   -5.8165    0.4820
 10.000   -5.7898    0.4338   -5.8825    0.5085   -5.8023    0.4586   -5.8154    0.4450   -5.7904    0.4682   -5.7948    0.4768
