# Macroscopic dielectric function obtained with the BS equation.
#  RPA L0 with KS energies and KS wavefunctions     LOCAL FIELD EFFECTS INCLUDED
# RESONANT-ONLY calculation
# Coulomb term constructed with full W(G1,G2)
# Scissor operator energy =  0.8000 [eV]
# Tolerance = -0.0010 0.0000
# npweps  = 113
# npwwfn  = 283
# nbands  = 8
# loband  = 2
# nkibz   = 3
# nkbz    = 8
# Lorentzian broadening =  0.0001 [eV]
# List of q-points for the optical limit:
# q =  0.938821, 0.000000, 0.000000, [Reduced coords] 
# q =  0.000000, 0.938821, 0.000000, [Reduced coords] 
# q =  0.000000, 0.000000, 0.938821, [Reduced coords] 
# q =  0.000000, 0.813043, 0.813043, [Reduced coords] 
# q =  0.813043, 0.000000, 0.813043, [Reduced coords] 
# q =  0.813043, 0.813043, 0.000000, [Reduced coords] 
# omega [eV]    RE(eps(q=1)) IM(eps(q=1) RE(eps(q=2) ) ... 
  0.000   54.7543    0.0000   54.7405    0.0000   54.7505    0.0000   54.7442    0.0000   54.7882    0.0000   54.7862    0.0000
  0.010   54.7548    0.0032   54.7411    0.0034   54.7510    0.0034   54.7448    0.0032   54.7887    0.0036   54.7867    0.0036
  0.020   54.7564    0.0064   54.7427    0.0069   54.7526    0.0069   54.7464    0.0064   54.7903    0.0072   54.7883    0.0072
  0.030   54.7591    0.0096   54.7453    0.0103   54.7553    0.0103   54.7490    0.0096   54.7930    0.0107   54.7910    0.0108
  0.040   54.7628    0.0129   54.7491    0.0138   54.7590    0.0137   54.7528    0.0128   54.7967    0.0143   54.7947    0.0144
  0.050   54.7676    0.0161   54.7539    0.0172   54.7638    0.0172   54.7576    0.0160   54.8016    0.0179   54.7996    0.0179
  0.060   54.7735    0.0193   54.7597    0.0206   54.7697    0.0206   54.7635    0.0192   54.8074    0.0215   54.8054    0.0215
  0.070   54.7804    0.0225   54.7667    0.0241   54.7766    0.0241   54.7704    0.0224   54.8144    0.0251   54.8124    0.0251
  0.080   54.7884    0.0258   54.7747    0.0275   54.7847    0.0275   54.7784    0.0256   54.8224    0.0287   54.8204    0.0287
  0.090   54.7975    0.0290   54.7838    0.0310   54.7937    0.0310   54.7875    0.0288   54.8315    0.0323   54.8295    0.0323
  0.100   54.8077    0.0322   54.7939    0.0345   54.8039    0.0344   54.7976    0.0320   54.8417    0.0359   54.8397    0.0359
  0.110   54.8189    0.0355   54.8051    0.0379   54.8151    0.0379   54.8089    0.0352   54.8529    0.0395   54.8510    0.0395
  0.120   54.8312    0.0387   54.8174    0.0414   54.8274    0.0413   54.8212    0.0384   54.8653    0.0431   54.8633    0.0432
  0.130   54.8446    0.0419   54.8308    0.0449   54.8408    0.0448   54.8346    0.0416   54.8787    0.0467   54.8767    0.0468
  0.140   54.8590    0.0452   54.8453    0.0483   54.8553    0.0483   54.8490    0.0448   54.8932    0.0503   54.8912    0.0504
  0.150   54.8746    0.0484   54.8608    0.0518   54.8708    0.0518   54.8646    0.0481   54.9087    0.0539   54.9067    0.0540
  0.160   54.8912    0.0517   54.8774    0.0553   54.8874    0.0552   54.8812    0.0513   54.9254    0.0576   54.9234    0.0577
  0.170   54.9089    0.0550   54.8951    0.0588   54.9051    0.0587   54.8989    0.0546   54.9431    0.0612   54.9411    0.0613
  0.180   54.9277    0.0582   54.9139    0.0623   54.9239    0.0622   54.9177    0.0578   54.9620    0.0649   54.9600    0.0650
  0.190   54.9476    0.0615   54.9338    0.0658   54.9438    0.0657   54.9376    0.0611   54.9819    0.0685   54.9799    0.0686
  0.200   54.9686    0.0648   54.9547    0.0693   54.9647    0.0692   54.9585    0.0643   55.0029    0.0722   55.0009    0.0723
  0.210   54.9906    0.0681   54.9768    0.0729   54.9868    0.0728   54.9806    0.0676   55.0250    0.0758   55.0230    0.0760
  0.220   55.0138    0.0714   54.9999    0.0764   55.0100    0.0763   55.0037    0.0709   55.0482    0.0795   55.0462    0.0797
  0.230   55.0381    0.0747   55.0242    0.0799   55.0342    0.0798   55.0280    0.0742   55.0725    0.0832   55.0705    0.0834
  0.240   55.0634    0.0780   55.0495    0.0835   55.0596    0.0834   55.0534    0.0775   55.0979    0.0869   55.0959    0.0871
  0.250   55.0899    0.0814   55.0760    0.0870   55.0861    0.0869   55.0798    0.0808   55.1244    0.0906   55.1224    0.0908
  0.260   55.1175    0.0847   55.1036    0.0906   55.1136    0.0905   55.1074    0.0841   55.1521    0.0943   55.1501    0.0945
  0.270   55.1462    0.0881   55.1322    0.0942   55.1423    0.0941   55.1361    0.0874   55.1808    0.0981   55.1788    0.0982
  0.280   55.1760    0.0914   55.1620    0.0978   55.1721    0.0977   55.1659    0.0908   55.2107    0.1018   55.2087    0.1020
  0.290   55.2069    0.0948   55.1929    0.1014   55.2030    0.1013   55.1968    0.0941   55.2416    0.1056   55.2396    0.1058
  0.300   55.2390    0.0982   55.2250    0.1050   55.2351    0.1049   55.2289    0.0975   55.2738    0.1093   55.2718    0.1095
  0.310   55.2722    0.1016   55.2581    0.1086   55.2683    0.1085   55.2621    0.1008   55.3070    0.1131   55.3050    0.1133
  0.320   55.3065    0.1050   55.2924    0.1123   55.3026    0.1122   55.2964    0.1042   55.3414    0.1169   55.3394    0.1171
  0.330   55.3419    0.1084   55.3279    0.1159   55.3380    0.1158   55.3318    0.1076   55.3769    0.1207   55.3749    0.1209
  0.340   55.3785    0.1118   55.3644    0.1196   55.3746    0.1195   55.3684    0.1110   55.4135    0.1245   55.4115    0.1248
  0.350   55.4163    0.1153   55.4022    0.1233   55.4123    0.1232   55.4061    0.1145   55.4514    0.1284   55.4493    0.1286
  0.360   55.4552    0.1188   55.4410    0.1270   55.4512    0.1269   55.4450    0.1179   55.4903    0.1322   55.4883    0.1325
  0.370   55.4952    0.1222   55.4811    0.1307   55.4912    0.1306   55.4851    0.1214   55.5304    0.1361   55.5284    0.1363
  0.380   55.5364    0.1257   55.5222    0.1345   55.5324    0.1343   55.5263    0.1248   55.5717    0.1400   55.5697    0.1402
  0.390   55.5788    0.1292   55.5646    0.1382   55.5748    0.1380   55.5686    0.1283   55.6142    0.1439   55.6121    0.1441
  0.400   55.6223    0.1328   55.6081    0.1420   55.6183    0.1418   55.6122    0.1318   55.6578    0.1478   55.6558    0.1481
  0.410   55.6670    0.1363   55.6528    0.1458   55.6630    0.1456   55.6569    0.1353   55.7026    0.1518   55.7006    0.1520
  0.420   55.7130    0.1399   55.6987    0.1496   55.7089    0.1494   55.7028    0.1389   55.7486    0.1557   55.7465    0.1560
  0.430   55.7600    0.1434   55.7457    0.1534   55.7560    0.1532   55.7499    0.1424   55.7957    0.1597   55.7937    0.1600
  0.440   55.8083    0.1470   55.7940    0.1572   55.8043    0.1570   55.7981    0.1460   55.8441    0.1637   55.8421    0.1640
  0.450   55.8578    0.1506   55.8435    0.1611   55.8538    0.1609   55.8476    0.1496   55.8937    0.1677   55.8917    0.1680
  0.460   55.9085    0.1543   55.8941    0.1650   55.9045    0.1648   55.8983    0.1532   55.9445    0.1718   55.9425    0.1721
  0.470   55.9604    0.1579   55.9460    0.1689   55.9564    0.1687   55.9502    0.1568   55.9965    0.1758   55.9945    0.1761
  0.480   56.0136    0.1616   55.9991    0.1728   56.0095    0.1726   56.0033    0.1604   56.0497    0.1799   56.0477    0.1802
  0.490   56.0680    0.1653   56.0535    0.1767   56.0638    0.1765   56.0577    0.1641   56.1042    0.1840   56.1022    0.1843
  0.500   56.1236    0.1690   56.1090    0.1807   56.1194    0.1805   56.1133    0.1678   56.1599    0.1881   56.1579    0.1885
  0.510   56.1804    0.1727   56.1659    0.1847   56.1763    0.1845   56.1701    0.1715   56.2168    0.1923   56.2148    0.1926
  0.520   56.2385    0.1765   56.2239    0.1887   56.2343    0.1885   56.2282    0.1752   56.2750    0.1965   56.2730    0.1968
  0.530   56.2979    0.1803   56.2832    0.1927   56.2937    0.1925   56.2876    0.1790   56.3345    0.2007   56.3325    0.2010
  0.540   56.3585    0.1841   56.3438    0.1968   56.3543    0.1966   56.3482    0.1828   56.3952    0.2049   56.3932    0.2052
  0.550   56.4204    0.1879   56.4057    0.2009   56.4162    0.2006   56.4101    0.1866   56.4573    0.2092   56.4552    0.2095
  0.560   56.4836    0.1917   56.4688    0.2050   56.4793    0.2047   56.4733    0.1904   56.5206    0.2134   56.5185    0.2138
  0.570   56.5480    0.1956   56.5333    0.2091   56.5438    0.2089   56.5377    0.1943   56.5851    0.2178   56.5831    0.2181
  0.580   56.6138    0.1995   56.5990    0.2133   56.6096    0.2130   56.6035    0.1981   56.6510    0.2221   56.6490    0.2225
  0.590   56.6809    0.2034   56.6661    0.2175   56.6766    0.2172   56.6706    0.2020   56.7183    0.2265   56.7162    0.2268
  0.600   56.7493    0.2074   56.7344    0.2217   56.7450    0.2214   56.7390    0.2060   56.7868    0.2309   56.7847    0.2312
  0.610   56.8191    0.2114   56.8041    0.2259   56.8147    0.2257   56.8087    0.2099   56.8567    0.2353   56.8546    0.2357
  0.620   56.8901    0.2154   56.8752    0.2302   56.8858    0.2300   56.8798    0.2139   56.9279    0.2397   56.9258    0.2401
  0.630   56.9626    0.2194   56.9476    0.2345   56.9582    0.2343   56.9522    0.2179   57.0004    0.2442   56.9984    0.2446
  0.640   57.0364    0.2235   57.0213    0.2389   57.0320    0.2386   57.0259    0.2220   57.0743    0.2488   57.0723    0.2492
  0.650   57.1115    0.2276   57.0964    0.2432   57.1071    0.2430   57.1011    0.2261   57.1496    0.2533   57.1476    0.2537
  0.660   57.1880    0.2317   57.1729    0.2476   57.1836    0.2474   57.1776    0.2302   57.2263    0.2579   57.2242    0.2583
  0.670   57.2660    0.2359   57.2508    0.2521   57.2615    0.2518   57.2555    0.2343   57.3044    0.2625   57.3023    0.2629
  0.680   57.3453    0.2401   57.3301    0.2566   57.3408    0.2563   57.3348    0.2385   57.3838    0.2672   57.3818    0.2676
  0.690   57.4260    0.2443   57.4108    0.2611   57.4215    0.2608   57.4156    0.2427   57.4647    0.2719   57.4627    0.2723
  0.700   57.5082    0.2485   57.4929    0.2656   57.5037    0.2653   57.4977    0.2469   57.5470    0.2766   57.5450    0.2771
  0.710   57.5918    0.2528   57.5764    0.2702   57.5873    0.2699   57.5813    0.2512   57.6308    0.2814   57.6287    0.2818
  0.720   57.6769    0.2572   57.6614    0.2748   57.6723    0.2745   57.6664    0.2555   57.7160    0.2862   57.7140    0.2867
  0.730   57.7634    0.2615   57.7479    0.2795   57.7588    0.2792   57.7529    0.2598   57.8027    0.2910   57.8006    0.2915
  0.740   57.8514    0.2659   57.8358    0.2841   57.8467    0.2838   57.8408    0.2642   57.8908    0.2959   57.8888    0.2964
  0.750   57.9408    0.2704   57.9253    0.2889   57.9362    0.2886   57.9303    0.2686   57.9805    0.3009   57.9784    0.3013
  0.760   58.0318    0.2748   58.0162    0.2937   58.0272    0.2933   58.0213    0.2731   58.0716    0.3058   58.0696    0.3063
  0.770   58.1243    0.2794   58.1086    0.2985   58.1196    0.2981   58.1137    0.2776   58.1643    0.3109   58.1622    0.3113
  0.780   58.2183    0.2839   58.2026    0.3033   58.2136    0.3030   58.2078    0.2821   58.2585    0.3159   58.2564    0.3164
  0.790   58.3139    0.2885   58.2981    0.3082   58.3091    0.3079   58.3033    0.2867   58.3542    0.3210   58.3521    0.3215
  0.800   58.4110    0.2931   58.3951    0.3132   58.4062    0.3128   58.4004    0.2913   58.4515    0.3262   58.4494    0.3267
  0.810   58.5097    0.2978   58.4938    0.3182   58.5049    0.3178   58.4991    0.2960   58.5504    0.3314   58.5483    0.3319
  0.820   58.6100    0.3026   58.5940    0.3232   58.6051    0.3228   58.5993    0.3007   58.6509    0.3366   58.6488    0.3371
  0.830   58.7119    0.3073   58.6958    0.3283   58.7070    0.3279   58.7012    0.3054   58.7529    0.3419   58.7508    0.3424
  0.840   58.8154    0.3121   58.7992    0.3334   58.8104    0.3330   58.8047    0.3102   58.8566    0.3473   58.8545    0.3478
  0.850   58.9205    0.3170   58.9043    0.3386   58.9155    0.3382   58.9098    0.3151   58.9619    0.3527   58.9599    0.3532
  0.860   59.0273    0.3219   59.0110    0.3438   59.0223    0.3434   59.0166    0.3199   59.0689    0.3581   59.0668    0.3586
  0.870   59.1357    0.3268   59.1194    0.3491   59.1307    0.3487   59.1250    0.3249   59.1776    0.3636   59.1755    0.3642
  0.880   59.2458    0.3319   59.2295    0.3544   59.2408    0.3540   59.2351    0.3299   59.2879    0.3692   59.2858    0.3697
  0.890   59.3577    0.3369   59.3412    0.3598   59.3526    0.3594   59.3469    0.3349   59.4000    0.3748   59.3979    0.3753
  0.900   59.4712    0.3420   59.4547    0.3652   59.4661    0.3648   59.4605    0.3400   59.5137    0.3804   59.5116    0.3810
  0.910   59.5865    0.3472   59.5699    0.3707   59.5814    0.3703   59.5757    0.3451   59.6292    0.3862   59.6271    0.3867
  0.920   59.7035    0.3524   59.6869    0.3763   59.6984    0.3759   59.6928    0.3503   59.7465    0.3920   59.7444    0.3925
  0.930   59.8224    0.3576   59.8056    0.3819   59.8172    0.3815   59.8116    0.3556   59.8655    0.3978   59.8634    0.3984
  0.940   59.9430    0.3630   59.9262    0.3875   59.9377    0.3871   59.9322    0.3609   59.9864    0.4037   59.9843    0.4043
  0.950   60.0654    0.3683   60.0485    0.3933   60.0601    0.3929   60.0546    0.3662   60.1090    0.4097   60.1069    0.4103
  0.960   60.1897    0.3738   60.1727    0.3990   60.1843    0.3986   60.1788    0.3716   60.2335    0.4157   60.2314    0.4163
  0.970   60.3158    0.3793   60.2987    0.4049   60.3104    0.4045   60.3049    0.3771   60.3599    0.4218   60.3578    0.4224
  0.980   60.4438    0.3848   60.4267    0.4108   60.4384    0.4104   60.4329    0.3827   60.4881    0.4280   60.4860    0.4286
  0.990   60.5737    0.3904   60.5565    0.4168   60.5682    0.4164   60.5628    0.3883   60.6183    0.4342   60.6162    0.4348
  1.000   60.7055    0.3961   60.6882    0.4228   60.7000    0.4224   60.6946    0.3939   60.7504    0.4405   60.7482    0.4411
  1.010   60.8392    0.4019   60.8219    0.4289   60.8337    0.4285   60.8283    0.3997   60.8844    0.4469   60.8823    0.4475
  1.020   60.9750    0.4077   60.9575    0.4351   60.9694    0.4347   60.9640    0.4055   61.0204    0.4533   61.0182    0.4540
  1.030   61.1127    0.4136   61.0951    0.4414   61.1071    0.4409   61.1017    0.4113   61.1583    0.4599   61.1562    0.4605
  1.040   61.2524    0.4195   61.2348    0.4477   61.2467    0.4473   61.2414    0.4172   61.2983    0.4665   61.2962    0.4671
  1.050   61.3942    0.4255   61.3764    0.4541   61.3885    0.4537   61.3832    0.4233   61.4404    0.4731   61.4382    0.4738
  1.060   61.5380    0.4316   61.5202    0.4606   61.5322    0.4601   61.5270    0.4293   61.5845    0.4799   61.5824    0.4805
  1.070   61.6839    0.4378   61.6660    0.4671   61.6781    0.4667   61.6729    0.4355   61.7307    0.4867   61.7286    0.4874
  1.080   61.8319    0.4440   61.8139    0.4737   61.8261    0.4733   61.8209    0.4417   61.8790    0.4936   61.8769    0.4943
  1.090   61.9821    0.4503   61.9640    0.4805   61.9762    0.4800   61.9711    0.4480   62.0295    0.5006   62.0273    0.5013
  1.100   62.1344    0.4567   62.1162    0.4873   62.1285    0.4868   62.1234    0.4544   62.1821    0.5077   62.1800    0.5084
  1.110   62.2890    0.4632   62.2707    0.4941   62.2830    0.4937   62.2779    0.4608   62.3370    0.5149   62.3348    0.5156
  1.120   62.4457    0.4697   62.4273    0.5011   62.4397    0.5006   62.4347    0.4674   62.4940    0.5222   62.4919    0.5228
  1.130   62.6047    0.4764   62.5862    0.5081   62.5987    0.5077   62.5937    0.4740   62.6534    0.5295   62.6512    0.5302
  1.140   62.7660    0.4831   62.7474    0.5153   62.7599    0.5148   62.7549    0.4807   62.8150    0.5370   62.8129    0.5377
  1.150   62.9297    0.4899   62.9110    0.5225   62.9235    0.5220   62.9185    0.4875   62.9789    0.5445   62.9768    0.5452
  1.160   63.0956    0.4968   63.0768    0.5298   63.0894    0.5294   63.0845    0.4944   63.1452    0.5522   63.1431    0.5529
  1.170   63.2640    0.5038   63.2450    0.5373   63.2577    0.5368   63.2528    0.5014   63.3139    0.5599   63.3118    0.5606
  1.180   63.4347    0.5109   63.4157    0.5448   63.4284    0.5443   63.4236    0.5085   63.4850    0.5677   63.4829    0.5685
  1.190   63.6079    0.5180   63.5888    0.5524   63.6015    0.5519   63.5967    0.5156   63.6586    0.5757   63.6564    0.5764
  1.200   63.7836    0.5253   63.7643    0.5601   63.7771    0.5596   63.7724    0.5229   63.8346    0.5838   63.8325    0.5845
  1.210   63.9618    0.5327   63.9424    0.5679   63.9552    0.5674   63.9506    0.5303   64.0132    0.5919   64.0110    0.5927
  1.220   64.1425    0.5401   64.1230    0.5759   64.1359    0.5754   64.1313    0.5377   64.1943    0.6002   64.1921    0.6009
  1.230   64.3258    0.5477   64.3062    0.5839   64.3192    0.5834   64.3146    0.5453   64.3780    0.6086   64.3758    0.6093
  1.240   64.5118    0.5554   64.4920    0.5921   64.5051    0.5916   64.5006    0.5530   64.5643    0.6171   64.5621    0.6179
  1.250   64.7004    0.5632   64.6805    0.6003   64.6936    0.5998   64.6891    0.5608   64.7533    0.6257   64.7511    0.6265
  1.260   64.8917    0.5711   64.8717    0.6087   64.8848    0.6082   64.8804    0.5687   64.9450    0.6345   64.9428    0.6352
  1.270   65.0857    0.5791   65.0656    0.6172   65.0788    0.6167   65.0745    0.5767   65.1395    0.6434   65.1373    0.6441
  1.280   65.2826    0.5872   65.2623    0.6258   65.2756    0.6253   65.2713    0.5848   65.3367    0.6524   65.3345    0.6531
  1.290   65.4822    0.5955   65.4618    0.6346   65.4752    0.6341   65.4709    0.5930   65.5368    0.6615   65.5346    0.6623
  1.300   65.6847    0.6039   65.6642    0.6435   65.6776    0.6429   65.6734    0.6014   65.7397    0.6708   65.7375    0.6715
  1.310   65.8902    0.6123   65.8695    0.6525   65.8830    0.6519   65.8789    0.6099   65.9456    0.6802   65.9434    0.6809
  1.320   66.0985    0.6210   66.0777    0.6616   66.0913    0.6611   66.0872    0.6185   66.1544    0.6897   66.1522    0.6905
  1.330   66.3099    0.6297   66.2890    0.6709   66.3026    0.6704   66.2986    0.6273   66.3662    0.6994   66.3641    0.7002
  1.340   66.5243    0.6386   66.5033    0.6803   66.5169    0.6798   66.5130    0.6362   66.5811    0.7092   66.5789    0.7100
  1.350   66.7419    0.6476   66.7206    0.6899   66.7344    0.6893   66.7305    0.6452   66.7991    0.7192   66.7969    0.7200
  1.360   66.9625    0.6568   66.9411    0.6996   66.9550    0.6990   66.9512    0.6544   67.0203    0.7293   67.0181    0.7302
  1.370   67.1864    0.6661   67.1649    0.7094   67.1787    0.7089   67.1751    0.6637   67.2446    0.7396   67.2424    0.7404
  1.380   67.4135    0.6755   67.3918    0.7194   67.4058    0.7189   67.4022    0.6731   67.4722    0.7501   67.4700    0.7509
  1.390   67.6439    0.6851   67.6221    0.7296   67.6361    0.7290   67.6326    0.6827   67.7031    0.7607   67.7009    0.7615
  1.400   67.8777    0.6949   67.8557    0.7399   67.8698    0.7394   67.8663    0.6925   67.9374    0.7715   67.9352    0.7723
  1.410   68.1149    0.7048   68.0927    0.7504   68.1069    0.7499   68.1035    0.7024   68.1751    0.7825   68.1729    0.7833
  1.420   68.3555    0.7148   68.3331    0.7611   68.3474    0.7605   68.3442    0.7125   68.4163    0.7936   68.4141    0.7944
  1.430   68.5997    0.7251   68.5771    0.7719   68.5915    0.7714   68.5883    0.7228   68.6610    0.8049   68.6588    0.8057
  1.440   68.8474    0.7355   68.8247    0.7829   68.8392    0.7824   68.8361    0.7332   68.9093    0.8164   68.9071    0.8172
  1.450   69.0988    0.7461   69.0760    0.7941   69.0905    0.7936   69.0875    0.7438   69.1613    0.8281   69.1591    0.8289
  1.460   69.3540    0.7568   69.3309    0.8055   69.3455    0.8049   69.3426    0.7545   69.4169    0.8400   69.4148    0.8408
  1.470   69.6128    0.7677   69.5896    0.8171   69.6043    0.8165   69.6015    0.7655   69.6764    0.8521   69.6742    0.8529
  1.480   69.8756    0.7789   69.8521    0.8288   69.8669    0.8283   69.8642    0.7766   69.9397    0.8644   69.9375    0.8652
  1.490   70.1422    0.7902   70.1186    0.8408   70.1334    0.8402   70.1309    0.7880   70.2070    0.8769   70.2048    0.8777
  1.500   70.4128    0.8017   70.3890    0.8530   70.4040    0.8524   70.4015    0.7995   70.4782    0.8896   70.4760    0.8905
  1.510   70.6875    0.8134   70.6635    0.8654   70.6785    0.8648   70.6762    0.8112   70.7535    0.9025   70.7513    0.9034
  1.520   70.9663    0.8253   70.9421    0.8780   70.9572    0.8774   70.9550    0.8232   71.0329    0.9157   71.0308    0.9166
  1.530   71.2493    0.8374   71.2249    0.8908   71.2401    0.8902   71.2380    0.8353   71.3166    0.9291   71.3144    0.9300
  1.540   71.5366    0.8498   71.5119    0.9038   71.5272    0.9032   71.5253    0.8477   71.6045    0.9427   71.6023    0.9436
  1.550   71.8282    0.8623   71.8033    0.9171   71.8188    0.9165   71.8169    0.8603   71.8968    0.9566   71.8946    0.9575
  1.560   72.1243    0.8751   72.0992    0.9306   72.1147    0.9300   72.1130    0.8732   72.1936    0.9708   72.1914    0.9716
  1.570   72.4249    0.8881   72.3996    0.9444   72.4152    0.9438   72.4136    0.8862   72.4949    0.9852   72.4927    0.9860
  1.580   72.7300    0.9014   72.7045    0.9584   72.7202    0.9578   72.7188    0.8995   72.8008    0.9998   72.7986    1.0007
  1.590   73.0399    0.9149   73.0142    0.9727   73.0300    0.9721   73.0287    0.9131   73.1114    1.0147   73.1092    1.0156
  1.600   73.3546    0.9287   73.3286    0.9872   73.3446    0.9866   73.3434    0.9269   73.4269    1.0299   73.4247    1.0308
  1.610   73.6742    0.9427   73.6480    1.0021   73.6640    1.0015   73.6630    0.9410   73.7472    1.0454   73.7450    1.0463
  1.620   73.9987    0.9570   73.9723    1.0172   73.9884    1.0165   73.9876    0.9553   74.0725    1.0612   74.0703    1.0621
  1.630   74.3284    0.9716   74.3016    1.0325   74.3179    1.0319   74.3173    0.9700   74.4029    1.0773   74.4007    1.0782
  1.640   74.6632    0.9864   74.6362    1.0482   74.6525    1.0476   74.6521    0.9849   74.7385    1.0937   74.7364    1.0946
  1.650   75.0032    1.0016   74.9760    1.0642   74.9925    1.0636   74.9922    1.0001   75.0794    1.1104   75.0773    1.1113
  1.660   75.3487    1.0170   75.3212    1.0805   75.3378    1.0799   75.3377    1.0156   75.4257    1.1275   75.4236    1.1283
  1.670   75.6997    1.0328   75.6719    1.0971   75.6886    1.0965   75.6887    1.0314   75.7776    1.1449   75.7754    1.1457
  1.680   76.0563    1.0488   76.0282    1.1141   76.0451    1.1135   76.0453    1.0476   76.1350    1.1626   76.1329    1.1635
  1.690   76.4186    1.0652   76.3903    1.1314   76.4072    1.1308   76.4077    1.0640   76.4982    1.1807   76.4961    1.1815
  1.700   76.7867    1.0820   76.7581    1.1490   76.7752    1.1484   76.7759    1.0808   76.8673    1.1991   76.8652    1.2000
  1.710   77.1609    1.0990   77.1320    1.1670   77.1492    1.1664   77.1501    1.0980   77.2424    1.2180   77.2403    1.2188
  1.720   77.5411    1.1165   77.5119    1.1854   77.5293    1.1848   77.5304    1.1155   77.6236    1.2372   77.6215    1.2381
  1.730   77.9276    1.1342   77.8981    1.2042   77.9156    1.2036   77.9169    1.1334   78.0111    1.2568   78.0089    1.2577
  1.740   78.3205    1.1524   78.2907    1.2233   78.3083    1.2227   78.3099    1.1517   78.4049    1.2769   78.4028    1.2777
  1.750   78.7199    1.1710   78.6897    1.2429   78.7075    1.2423   78.7093    1.1703   78.8053    1.2973   78.8032    1.2982
  1.760   79.1259    1.1899   79.0954    1.2629   79.1133    1.2623   79.1154    1.1894   79.2124    1.3183   79.2103    1.3191
  1.770   79.5387    1.2093   79.5079    1.2833   79.5259    1.2827   79.5283    1.2089   79.6263    1.3396   79.6242    1.3404
  1.780   79.9585    1.2291   79.9274    1.3041   79.9455    1.3035   79.9481    1.2288   80.0471    1.3614   80.0450    1.3622
  1.790   80.3854    1.2493   80.3539    1.3254   80.3722    1.3248   80.3751    1.2491   80.4751    1.3837   80.4731    1.3845
  1.800   80.8196    1.2700   80.7877    1.3472   80.8062    1.3466   80.8094    1.2699   80.9105    1.4065   80.9084    1.4073
  1.810   81.2612    1.2911   81.2290    1.3695   81.2476    1.3689   81.2511    1.2912   81.3533    1.4298   81.3512    1.4306
  1.820   81.7105    1.3127   81.6779    1.3922   81.6967    1.3917   81.7004    1.3130   81.8037    1.4536   81.8016    1.4544
  1.830   82.1675    1.3348   82.1345    1.4155   82.1535    1.4149   82.1576    1.3352   82.2620    1.4780   82.2599    1.4788
  1.840   82.6325    1.3575   82.5992    1.4393   82.6183    1.4388   82.6227    1.3580   82.7282    1.5030   82.7262    1.5037
  1.850   83.1058    1.3806   83.0720    1.4637   83.0913    1.4631   83.0960    1.3813   83.2027    1.5285   83.2007    1.5292
  1.860   83.5874    1.4043   83.5532    1.4886   83.5726    1.4881   83.5777    1.4052   83.6856    1.5546   83.6836    1.5553
  1.870   84.0775    1.4286   84.0429    1.5142   84.0626    1.5136   84.0680    1.4296   84.1771    1.5813   84.1751    1.5820
  1.880   84.5765    1.4534   84.5415    1.5403   84.5613    1.5397   84.5671    1.4546   84.6774    1.6086   84.6755    1.6094
  1.890   85.0845    1.4788   85.0490    1.5670   85.0690    1.5665   85.0752    1.4802   85.1868    1.6367   85.1848    1.6374
  1.900   85.6017    1.5049   85.5658    1.5944   85.5859    1.5939   85.5925    1.5065   85.7054    1.6654   85.7035    1.6661
  1.910   86.1283    1.5316   86.0920    1.6225   86.1123    1.6220   86.1194    1.5334   86.2336    1.6948   86.2316    1.6955
  1.920   86.6647    1.5589   86.6279    1.6513   86.6484    1.6507   86.6559    1.5610   86.7715    1.7249   86.7695    1.7256
  1.930   87.2111    1.5870   87.1737    1.6807   87.1945    1.6802   87.2024    1.5892   87.3193    1.7558   87.3174    1.7564
  1.940   87.7676    1.6157   87.7298    1.7110   87.7508    1.7104   87.7591    1.6182   87.8775    1.7874   87.8756    1.7881
  1.950   88.3347    1.6452   88.2964    1.7420   88.3176    1.7414   88.3264    1.6480   88.4462    1.8199   88.4443    1.8205
  1.960   88.9125    1.6755   88.8737    1.7737   88.8951    1.7732   88.9044    1.6785   89.0257    1.8532   89.0238    1.8538
  1.970   89.5014    1.7065   89.4620    1.8063   89.4836    1.8058   89.4935    1.7098   89.6163    1.8873   89.6144    1.8880
  1.980   90.1017    1.7384   90.0617    1.8398   90.0836    1.8393   90.0939    1.7419   90.2182    1.9224   90.2164    1.9230
  1.990   90.7136    1.7711   90.6731    1.8741   90.6952    1.8737   90.7061    1.7749   90.8320    1.9584   90.8302    1.9590
  2.000   91.3375    1.8047   91.2964    1.9094   91.3187    1.9089   91.3302    1.8088   91.4577    1.9953   91.4560    1.9959
  2.010   91.9737    1.8392   91.9321    1.9456   91.9546    1.9451   91.9667    1.8436   92.0958    2.0333   92.0941    2.0338
  2.020   92.6227    1.8746   92.5804    1.9828   92.6031    1.9823   92.6158    1.8794   92.7467    2.0723   92.7450    2.0728
  2.030   93.2846    1.9110   93.2417    2.0210   93.2647    2.0206   93.2780    1.9162   93.4106    2.1123   93.4089    2.1128
  2.040   93.9600    1.9485   93.9164    2.0603   93.9397    2.0599   93.9537    1.9540   94.0880    2.1535   94.0864    2.1540
  2.050   94.6491    1.9870   94.6049    2.1007   94.6284    2.1003   94.6431    1.9929   94.7792    2.1958   94.7776    2.1963
  2.060   95.3525    2.0266   95.3076    2.1422   95.3314    2.1418   95.3468    2.0329   95.4848    2.2394   95.4832    2.2398
  2.070   96.0705    2.0673   96.0249    2.1849   96.0489    2.1845   96.0651    2.0740   96.2050    2.2842   96.2034    2.2846
  2.080   96.8035    2.1092   96.7572    2.2289   96.7815    2.2285   96.7984    2.1164   96.9403    2.3303   96.9388    2.3306
  2.090   97.5521    2.1524   97.5050    2.2741   97.5297    2.2738   97.5474    2.1600   97.6912    2.3777   97.6897    2.3781
  2.100   98.3167    2.1968   98.2689    2.3207   98.2938    2.3204   98.3123    2.2049   98.4582    2.4266   98.4568    2.4269
  2.110   99.0978    2.2426   99.0491    2.3687   99.0744    2.3684   99.0937    2.2512   99.2418    2.4769   99.2404    2.4772
  2.120   99.8958    2.2898   99.8464    2.4181   99.8720    2.4178   99.8922    2.2990  100.0424    2.5288  100.0410    2.5290
  2.130  100.7115    2.3385  100.6612    2.4690  100.6871    2.4688  100.7083    2.3481  100.8607    2.5822  100.8594    2.5824
  2.140  101.5452    2.3886  101.4941    2.5215  101.5203    2.5213  101.5425    2.3989  101.6971    2.6373  101.6959    2.6375
  2.150  102.3977    2.4404  102.3457    2.5757  102.3722    2.5755  102.3954    2.4512  102.5523    2.6942  102.5512    2.6943
  2.160  103.2694    2.4938  103.2165    2.6316  103.2434    2.6314  103.2676    2.5052  103.4270    2.7528  103.4258    2.7529
  2.170  104.1612    2.5489  104.1073    2.6893  104.1345    2.6891  104.1599    2.5610  104.3217    2.8133  104.3206    2.8134
  2.180  105.0735    2.6058  105.0187    2.7488  105.0462    2.7487  105.0727    2.6186  105.2371    2.8758  105.2360    2.8758
  2.190  106.0072    2.6646  105.9513    2.8103  105.9793    2.8102  106.0070    2.6782  106.1739    2.9404  106.1729    2.9403
  2.200  106.9629    2.7253  106.9060    2.8739  106.9344    2.8738  106.9633    2.7397  107.1329    3.0071  107.1320    3.0070
  2.210  107.9415    2.7882  107.8835    2.9396  107.9122    2.9395  107.9425    2.8033  108.1148    3.0761  108.1139    3.0759
  2.220  108.9437    2.8531  108.8846    3.0075  108.9137    3.0075  108.9453    2.8691  109.1204    3.1474  109.1197    3.1472
  2.230  109.9703    2.9204  109.9101    3.0777  109.9396    3.0778  109.9726    2.9372  110.1507    3.2212  110.1500    3.2209
  2.240  111.0223    2.9900  110.9609    3.1505  110.9909    3.1506  111.0254    3.0077  111.2064    3.2976  111.2058    3.2972
  2.250  112.1006    3.0620  112.0379    3.2257  112.0684    3.2259  112.1044    3.0808  112.2885    3.3767  112.2880    3.3762
  2.260  113.2062    3.1367  113.1422    3.3037  113.1731    3.3039  113.2108    3.1564  113.3980    3.4586  113.3975    3.4581
  2.270  114.3400    3.2141  114.2747    3.3846  114.3061    3.3848  114.3454    3.2349  114.5359    3.5435  114.5355    3.5429
  2.280  115.5032    3.2943  115.4365    3.4683  115.4684    3.4686  115.5095    3.3163  115.7033    3.6315  115.7030    3.6309
  2.290  116.6968    3.3776  116.6287    3.5553  116.6611    3.5556  116.7041    3.4007  116.9013    3.7229  116.9012    3.7222
  2.300  117.9222    3.4640  117.8525    3.6455  117.8855    3.6459  117.9304    3.4884  118.1312    3.8177  118.1312    3.8169
  2.310  119.1804    3.5538  119.1092    3.7391  119.1428    3.7396  119.1896    3.5795  119.3941    3.9161  119.3942    3.9152
  2.320  120.4729    3.6471  120.4001    3.8364  120.4342    3.8369  120.4832    3.6741  120.6915    4.0184  120.6917    4.0174
  2.330  121.8010    3.7440  121.7266    3.9375  121.7612    3.9381  121.8125    3.7726  122.0247    4.1247  122.0250    4.1236
  2.340  123.1663    3.8449  123.0901    4.0427  123.1253    4.0434  123.1789    3.8750  123.3951    4.2353  123.3956    4.2341
  2.350  124.5702    3.9499  124.4921    4.1521  124.5281    4.1529  124.5841    3.9815  124.8044    4.3504  124.8051    4.3491
  2.360  126.0143    4.0592  125.9344    4.2661  125.9710    4.2669  126.0296    4.0926  126.2543    4.4702  126.2551    4.4688
  2.370  127.5005    4.1731  127.4187    4.3847  127.4559    4.3857  127.5172    4.2083  127.7464    4.5951  127.7473    4.5935
  2.380  129.0306    4.2919  128.9467    4.5085  128.9847    4.5095  129.0488    4.3290  129.2825    4.7252  129.2837    4.7236
  2.390  130.6065    4.4158  130.5205    4.6375  130.5592    4.6386  130.6263    4.4549  130.8648    4.8610  130.8661    4.8592
  2.400  132.2303    4.5452  132.1420    4.7722  132.1815    4.7734  132.2517    4.5864  132.4952    5.0028  132.4967    5.0008
  2.410  133.9041    4.6803  133.8135    4.9129  133.8537    4.9142  133.9273    4.7238  134.1759    5.1508  134.1776    5.1487
  2.420  135.6304    4.8216  135.5373    5.0599  135.5784    5.0613  135.6554    4.8674  135.9093    5.3056  135.9112    5.3034
  2.430  137.4115    4.9694  137.3158    5.2136  137.3578    5.2152  137.4385    5.0177  137.6979    5.4675  137.7000    5.4651
  2.440  139.2501    5.1241  139.1517    5.3746  139.1946    5.3762  139.2792    5.1751  139.5443    5.6369  139.5466    5.6344
  2.450  141.1490    5.2862  141.0478    5.5431  141.0916    5.5450  141.1803    5.3401  141.4513    5.8144  141.4540    5.8117
  2.460  143.1112    5.4561  143.0071    5.7198  143.0518    5.7218  143.1449    5.5131  143.4220    6.0006  143.4249    5.9976
  2.470  145.1399    5.6345  145.0327    5.9052  145.0785    5.9073  145.1761    5.6946  145.4596    6.1959  145.4628    6.1927
  2.480  147.2385    5.8218  147.1280    6.0998  147.1749    6.1021  147.2774    5.8854  147.5675    6.4009  147.5710    6.3976
  2.490  149.4107    6.0187  149.2968    6.3043  149.3448    6.3068  149.4524    6.0859  149.7494    6.6165  149.7533    6.6129
  2.500  151.6604    6.2258  151.5428    6.5194  151.5920    6.5221  151.7050    6.2969  152.0093    6.8432  152.0135    6.8394
  2.510  153.9917    6.4439  153.8703    6.7459  153.9207    6.7488  154.0395    6.5191  154.3513    7.0820  154.3559    7.0779
  2.520  156.4092    6.6739  156.2838    6.9845  156.3355    6.9877  156.4604    6.7535  156.7800    7.3336  156.7850    7.3293
  2.530  158.9177    6.9165  158.7880    7.2363  158.8411    7.2396  158.9726    7.0008  159.3003    7.5991  159.3057    7.5945
  2.540  161.5225    7.1727  161.3883    7.5021  161.4428    7.5057  161.5812    7.2620  161.9174    7.8795  161.9233    7.8746
  2.550  164.2292    7.4436  164.0901    7.7830  164.1462    7.7869  164.2920    7.5384  164.6371    8.1760  164.6434    8.1707
  2.560  167.0437    7.7304  166.8996    8.0803  166.9573    8.0845  167.1109    7.8309  167.4653    8.4897  167.4722    8.4841
  2.570  169.9728    8.0343  169.8233    8.3953  169.8827    8.3998  170.0447    8.1410  170.4089    8.8222  170.4163    8.8163
  2.580  173.0236    8.3567  172.8683    8.7294  172.9294    8.7343  173.1005    8.4702  173.4748    9.1750  173.4829    9.1686
  2.590  176.2036    8.6993  176.0423    9.0843  176.1053    9.0895  176.2860    8.8199  176.6709    9.5498  176.6796    9.5430
  2.600  179.5214    9.0637  179.3535    9.4616  179.4185    9.4673  179.6095    9.1921  180.0056    9.9484  180.0151    9.9412
  2.610  182.9861    9.4519  182.8112    9.8635  182.8784    9.8696  183.0804    9.5886  183.4882   10.3730  183.4985   10.3653
  2.620  186.6075    9.8660  186.4252   10.2921  186.4946   10.2987  186.7085   10.0118  187.1287   10.8259  187.1398   10.8177
  2.630  190.3967   10.3085  190.2063   10.7498  190.2782   10.7569  190.5048   10.4640  190.9380   11.3098  190.9500   11.3011
  2.640  194.3654   10.7819  194.1665   11.2394  194.2409   11.2471  194.4813   10.9480  194.9281   11.8276  194.9411   11.8183
  2.650  198.5268   11.2893  198.3187   11.7640  198.3959   11.7723  198.6511   11.4669  199.1122   12.3825  199.1262   12.3726
  2.660  202.8952   11.8341  202.6771   12.3271  202.7573   12.3361  203.0285   12.0242  203.5048   12.9783  203.5200   12.9677
  2.670  207.4865   12.4202  207.2576   12.9325  207.3410   12.9423  207.6295   12.6239  208.1218   13.6191  208.1383   13.6078
  2.680  212.3181   13.0517  212.0776   13.5848  212.1644   13.5954  212.4717   13.2703  212.9809   14.3097  212.9988   14.2976
  2.690  217.4094   13.7337  217.1563   14.2889  217.2467   14.3004  217.5745   13.9685  218.1015   15.0554  218.1209   15.0425
  2.700  222.7820   14.4717  222.5150   15.0505  222.6095   15.0630  222.9594   14.7244  223.5054   15.8624  223.5265   15.8486
  2.710  228.4596   15.2721  228.1777   15.8763  228.2764   15.8899  228.6506   15.5444  229.2167   16.7377  229.2396   16.7229
  2.720  234.4691   16.1423  234.1708   16.7737  234.2742   16.7886  234.6749   16.4362  235.2623   17.6892  235.2872   17.6734
  2.730  240.8404   17.0907  240.5242   17.7514  240.6327   17.7677  241.0624   17.4086  241.6724   18.7263  241.6995   18.7093
  2.740  247.6072   18.1272  247.2712   18.8194  247.3852   18.8372  247.8468   18.4715  248.4809   19.8597  248.5105   19.8415
  2.750  254.8073   19.2630  254.4495   19.9894  254.5697   20.0090  255.0663   19.6368  255.7260   21.1019  255.7585   21.0823
  2.760  262.4838   20.5116  262.1019   21.2749  262.2287   21.2964  262.7641   20.9181  263.4511   22.4674  263.4866   22.4463
  2.770  270.6854   21.8885  270.2768   22.6919  270.4109   22.7157  270.9892   22.3317  271.7053   23.9733  271.7443   23.9506
  2.780  279.4678   23.4122  279.0293   24.2592  279.1715   24.2856  279.7975   23.8966  280.5447   25.6398  280.5876   25.6154
  2.790  288.8948   25.1045  288.4228   25.9992  288.5740   26.0285  289.2531   25.6354  290.0335   27.4910  290.0808   27.4647
  2.800  299.0396   26.9916  298.5300   27.9385  298.6913   27.9711  299.4297   27.5751  300.2457   29.5555  300.2979   29.5271
  2.810  309.9874   29.1050  309.4352   30.1092  309.6077   30.1457  310.4129   29.7483  311.2668   31.8678  311.3246   31.8371
  2.820  321.8367   31.4827  321.2363   32.5502  321.4213   32.5912  322.3017   32.1943  323.1961   34.4696  323.2604   34.4365
  2.830  334.7032   34.1712  334.0476   35.3087  334.2467   35.3549  335.2122   34.9614  336.1499   37.4121  336.2216   37.3762
  2.840  348.7227   37.2278  348.0036   38.4429  348.2188   38.4954  349.2812   38.1088  350.2648   40.7580  350.3451   40.7190
  2.850  364.0561   40.7235  363.2636   42.0252  363.4972   42.0851  364.6702   41.7102  365.7026   44.5853  365.7929   44.5431
  2.860  380.8953   44.7475  380.0174   46.1461  380.2720   46.2148  381.5722   45.8579  382.6560   48.9921  382.7581   48.9461
  2.870  399.4712   49.4127  398.4928   50.9204  398.7716   50.9998  400.2190   50.6692  401.3564   54.1024  401.4723   54.0524
  2.880  420.0630   54.8642  418.9655   56.4951  419.2727   56.5875  420.8911   56.2946  422.0837   60.0757  422.2160   60.0213
  2.890  443.0122   61.2904  441.7724   63.0611  442.1127   63.1695  443.9314   62.9297  445.1793   67.1190  445.3314   67.0599
  2.900  468.7400   68.9395  467.3282   70.8697  467.7076   70.9983  469.7626   70.8325  471.0637   75.5057  471.2397   75.4415
  2.910  497.7713   78.1443  496.1491   80.2572  496.5751   80.4114  498.9109   80.3489  500.2590   85.6015  500.4644   85.5320
  2.920  530.7670   89.3582  528.8839   91.6815  529.3660   91.8686  532.0382   91.9507  533.4205   97.9055  533.6622   97.8307
  2.930  568.5685  103.2118  566.3575  105.7780  566.9078  106.0085  569.9862  106.2941  571.3783  113.1114  571.6659  113.0317
  2.940  612.2599  120.6019  609.6295  123.4490  610.2638  123.7375  613.8367  124.3130  615.1944  132.2056  615.5407  132.1223
  2.950  663.2528  142.8363  660.0759  146.0074  660.8146  146.3755  664.9937  147.3698  666.2385  156.6254  666.6610  156.5413
  2.960  723.4023  171.8776  719.4983  175.4189  720.3682  175.8991  725.2936  177.5097  726.2847  188.5249  726.8085  188.4460
  2.970  795.1582  210.7690  790.2632  214.7224  791.2997  215.3657  797.1421  217.9031  797.6233  231.2359  798.2845  231.1743
  2.980  881.7338  264.4063  875.4520  268.7901  876.7006  269.6790  883.6523  273.6466  883.1442  290.0955  883.9961  290.0755
  2.990  987.1953  340.9974  978.9167  345.7560  980.4326  347.0304  988.6581  353.2674  986.2307  373.9847  987.3538  374.0572
  3.000 1116.0795  454.9264 1104.8437  459.8000 1106.6797  461.7077 1116.1447  471.6430 1109.9117  498.2583 1111.4271  498.5331
  3.010 1271.0766  632.4779 1255.3694  636.6628 1257.5201  639.6602 1267.4511  655.7072 1253.4102  690.2666 1255.4889  690.9927
  3.020 1443.4516  922.7139 1421.0334  923.9677 1423.2200  928.9014 1430.5309  954.7185 1399.9743  998.4337 1402.7825 1000.1962
  3.030 1577.9151 1411.4585 1546.4577 1403.8558 1547.3640 1412.1034 1543.0280 1450.6661 1478.3531 1497.1392 1481.6225 1501.2588
  3.040 1468.2353 2189.0985 1430.8321 2158.9281 1426.1110 2171.0789 1393.4850 2214.0074 1274.8447 2226.0518 1276.0123 2234.4395
  3.050  666.6486 3033.0381  652.8488 2967.3389  636.3296 2975.7902  573.2484 2992.0066  449.8003 2895.9947  442.4615 2905.5068
  3.060 -723.6058 3013.4727 -679.8235 2959.9947 -697.3164 2952.2395 -755.4092 2922.9183 -758.7929 2776.3937 -770.7660 2776.0443
  3.070 ********* 2125.3138 ********* 2120.9009 ********* 2108.0400 ********* 2060.6534 ********* 1984.9042 ********* 1978.7502
  3.080 ********* 1337.2121 ********* 1349.3456 ********* 1340.4518 ********* 1303.9766 ********* 1280.8812 ********* 1275.6747
  3.090 *********  862.2673 *********  872.7935 *********  867.4573 *********  844.1993 *********  840.5109 *********  837.1064
  3.100 *********  592.2941 *********  597.5153 *********  594.1402 *********  578.9768 *********  580.8791 *********  578.8249
  3.110 *********  432.3432 *********  434.3052 *********  431.5063 *********  419.8408 *********  423.5800 *********  422.4691
  3.120 -961.2820  293.1730 -952.9760  302.3197 -950.5829  300.1216 -938.8869  293.3724 -926.2711  299.6288 -925.7499  298.7461
  3.130 -834.6000  212.3992 -832.0711  220.4418 -830.0762  219.3539 -820.9208  216.6191 -812.8854  221.7072 -812.4673  221.0204
  3.140 -738.1522  165.1108 -737.5508  170.9454 -735.9890  170.2432 -728.9275  168.9627 -723.2817  172.9824 -722.9039  172.4192
  3.150 -661.6486  131.7712 -661.7705  136.0832 -660.4899  135.5747 -654.8423  135.0238 -650.7244  138.2468 -650.3768  137.7907
  3.160 -598.7116  107.0138 -599.1430  110.2837 -598.0582  109.8944 -593.4354  109.7718 -590.3682  112.3758 -590.0510  112.0055
  3.170 -545.8159   88.1167 -546.3844   90.6473 -545.4435   90.3377 -541.6004   90.4807 -539.2839   92.5932 -538.9959   92.2902
  3.180 -500.6687   73.3824 -501.2940   75.3714 -500.4620   75.1178 -497.2312   75.4282 -495.4658   77.1451 -495.2044   76.8949
  3.190 -461.6491   61.6831 -462.2916   63.2648 -461.5436   63.0518 -458.8051   63.4667 -457.4527   64.8622 -457.2151   64.6539
  3.200 -427.5594   52.2435 -428.1996   53.5126 -427.5169   53.3294 -425.1817   53.8076 -424.1444   54.9394 -423.9278   54.7647
  3.210 -397.4893   44.5172 -398.1179   45.5421 -397.4863   45.3815 -395.4868   45.8945 -394.6933   46.8086 -394.4952   46.6613
  3.220 -370.7320   38.1108 -371.3454   38.9423 -370.7534   38.7989 -369.0374   39.3272 -368.4348   40.0601 -368.2530   39.9354
  3.230 -346.7286   32.7356 -347.3264   33.4123 -346.7645   33.2821 -345.2913   33.8115 -344.8396   34.3928 -344.6722   34.2870
  3.240 -325.0296   28.1761 -325.6135   28.7277 -325.0736   28.6078 -323.8111   29.1280 -323.4793   29.5818 -323.3248   29.4921
  3.250 -305.2679   24.2694 -305.8406   24.7192 -305.3156   24.6072 -304.2382   25.1102 -304.0022   25.4565 -303.8592   25.3806
  3.260 -287.1384   20.8901 -287.7035   21.2569 -287.1868   21.1511 -286.2743   21.6305 -286.1145   21.8860 -285.9821   21.8221
  3.270 -270.3825   17.9414 -270.9445   18.2403 -270.4296   18.1394 -269.6657   18.5896 -269.5664   18.7686 -269.4436   18.7153
  3.280 -254.7763   15.3476 -255.3404   15.5912 -254.8208   15.4944 -254.1929   15.9102 -254.1404   16.0252 -254.0269   15.9813
  3.290 -240.1209   13.0498 -240.6932   13.2490 -240.1619   13.1554 -239.6598   13.5316 -239.6425   13.5941 -239.5379   13.5586
  3.300 -226.2329   11.0028 -226.8210   11.1667 -226.2699   11.0763 -225.8861   11.4071 -225.8931   11.4280 -225.7977   11.4000
  3.310 -212.9367    9.1730 -213.5500    9.3099 -212.9698    9.2227 -212.6983    9.5018 -212.7193    9.4924 -212.6336    9.4710
  3.320 -200.0553    7.5374 -200.7057    7.6551 -200.0848    7.5720 -199.9214    7.7915 -199.9452    7.7649 -199.8707    7.7486
  3.330 -187.3977    6.0825 -188.1017    6.1884 -187.4246    6.1109 -187.3663    6.2623 -187.3807    6.2357 -187.3197    6.2214
  3.340 -174.7313    4.8008 -175.5130    4.9020 -174.7573    4.8337 -174.8042    4.9084 -174.7985    4.9084 -174.7522    4.8885
  3.350 -161.7143    3.7441 -162.6097    3.8424 -161.7428    3.7956 -161.9074    3.7781 -161.8834    3.8377 -161.8409    3.8047
  3.360 -148.0046    3.1356 -149.0583    3.2257 -148.0442    3.2246 -148.3325    3.0707 -148.2829    3.2121 -148.2394    3.1797
  3.370 -133.1954    3.1440 -134.4769    3.2202 -133.2620    3.2953 -133.6576    2.9594 -133.5515    3.2460 -133.5244    3.2145
  3.380 -116.4974    4.1759 -118.1268    4.2098 -116.6218    4.4260 -117.1030    3.8536 -116.9235    4.4157 -116.9269    4.3674
  3.390  -96.7331    7.2428  -98.9133    7.1416  -96.9813    7.6457  -97.5005    6.7571  -97.2726    7.8371  -97.3175    7.7361
  3.400  -72.1833   14.7178  -75.2516   14.2030  -72.7049   15.3431  -73.1444   14.0357  -73.0564   16.1075  -73.1384   15.8735
  3.410  -40.9862   32.5553  -45.3997   30.7896  -42.1339   33.4330  -42.2260   31.6370  -43.1353   35.5680  -43.1463   35.0278
  3.420   -6.0820   75.5201  -11.6260   70.2148   -8.6364   76.3040   -7.9091   74.2014  -13.1137   80.4772  -12.4739   79.5018
  3.430   -0.8055  164.7259   -2.6116  152.9146   -5.6030  163.1778   -3.5603  161.7075  -18.7143  162.8263  -16.5964  162.9050
  3.440  -96.7786  241.3242  -86.7904  231.7458  -98.4835  234.2804  -97.3355  235.3228 -106.7027  219.5905 -106.2562  221.5797
  3.450 -197.3252  197.8715 -187.8925  199.1402 -193.4763  193.8285 -194.5243  193.1266 -189.7418  181.2922 -190.3414  182.1309
  3.460 -219.6790  133.3131 -215.5388  136.5119 -216.4620  132.6192 -216.4149  130.6165 -210.3738  125.9232 -210.8248  126.3087
  3.470 -212.8181   93.4079 -210.9364   95.7715 -210.8767   93.5816 -209.9816   91.7070 -205.4623   89.9103 -205.8409   90.1648
  3.480 -200.8030   70.4514 -199.7964   72.0723 -199.6028   70.6971 -198.4022   69.1100 -195.0759   68.3569 -195.4704   68.5479
  3.490 -189.3622   56.7670 -188.7148   57.8594 -188.5363   56.8969 -187.2463   55.4459 -184.6886   55.2042 -185.0926   55.2341
  3.500 -179.8119   48.4582 -179.2820   49.2027 -179.1396   48.4352 -177.7624   46.9231 -175.7347   46.8818 -176.0850   46.8363
  3.510 -173.0870   43.3506 -172.5344   43.8842 -172.3784   43.1889 -170.6691   41.4394 -168.9065   41.5483 -169.2570   41.4099
  3.520 -170.2247   37.8424 -169.5409   38.4060 -169.2679   37.7511 -166.6372   36.0385 -165.0984   36.4813 -165.3442   36.1488
  3.530 -165.7101   28.0567 -165.2157   28.8579 -164.7881   28.4056 -161.4993   27.8309 -160.5208   28.4878 -160.4841   28.1885
  3.540 -156.5202   21.1440 -156.3295   21.8607 -155.9532   21.6271 -153.1330   22.0144 -152.5481   22.4992 -152.4632   22.3686
  3.550 -148.1176   18.0017 -148.0579   18.5576 -147.7700   18.4166 -145.5222   19.1074 -145.0969   19.4352 -145.0434   19.3733
  3.560 -141.2748   16.1979 -141.2686   16.6294 -141.0411   16.5297 -139.1818   17.2801 -138.8429   17.5129 -138.8130   17.4756
  3.570 -135.4782   14.8770 -135.4967   15.2171 -135.3095   15.1408 -133.7085   15.8839 -133.4301   16.0558 -133.4142   16.0288
  3.580 -130.3729   13.7950 -130.4039   14.0662 -130.2449   14.0055 -128.8256   14.7245 -128.5946   14.8539 -128.5868   14.8320
  3.590 -125.7597   12.8676 -125.7974   13.0858 -125.6593   13.0362 -124.3752   13.7284 -124.1827   13.8262 -124.1799   13.8074
  3.600 -121.5211   12.0568 -121.5625   12.2330 -121.4404   12.1920 -120.2617   12.8586 -120.1012   12.9319 -120.1015   12.9150
  3.610 -117.5819   11.3405 -117.6253   11.4830 -117.5159   11.4484 -116.4223   12.0916 -116.2887   12.1456 -116.2910   12.1302
  3.620 -113.8903   10.7034 -113.9349   10.8185 -113.8356   10.7890 -112.8126   11.4110 -112.7019   11.4495 -112.7054   11.4351
  3.630 -110.4085   10.1343 -110.4537   10.2267 -110.3627   10.2014 -109.3997   10.8040 -109.3083   10.8299 -109.3128   10.8165
  3.640 -107.1077    9.6241 -107.1532    9.6978 -107.0690    9.6757 -106.1578   10.2605 -106.0829   10.2763 -106.0880   10.2638
  3.650 -103.9649    9.1655 -104.0107    9.2236 -103.9321    9.2041 -103.0663    9.7726 -103.0055    9.7804 -103.0110    9.7687
  3.660 -100.9616    8.7528 -101.0075    8.7978 -100.9338    8.7805 -100.1081    9.3337 -100.0593    9.3352 -100.0652    9.3242
  3.670  -98.0823    8.3810  -98.1284    8.4152  -98.0587    8.3996  -97.2688    8.9384  -97.2304    8.9352  -97.2365    8.9249
  3.680  -95.3137    8.0463  -95.3600    8.0714  -95.2938    8.0572  -94.5362    8.5824  -94.5065    8.5760  -94.5128    8.5663
  3.690  -92.6445    7.7453  -92.6912    7.7630  -92.6279    7.7499  -91.8996    8.2621  -91.8773    8.2537  -91.8838    8.2446
  3.700  -90.0648    7.4754  -90.1119    7.4870  -90.0512    7.4749  -89.3496    7.9745  -89.3334    7.9654  -89.3401    7.9570
  3.710  -87.5656    7.2346  -87.6133    7.2414  -87.5548    7.2299  -86.8777    7.7175  -86.8666    7.7088  -86.8735    7.7009
  3.720  -85.1391    7.0212  -85.1875    7.0242  -85.1309    7.0133  -84.4763    7.4891  -84.4694    7.4819  -84.4765    7.4746
  3.730  -82.7781    6.8340  -82.8273    6.8343  -82.7723    6.8237  -82.1386    7.2880  -82.1350    7.2835  -82.1423    7.2767
  3.740  -80.4758    6.6723  -80.5260    6.6708  -80.4725    6.6604  -79.8581    7.1134  -79.8571    7.1126  -79.8646    7.1063
  3.750  -78.2263    6.5357  -78.2777    6.5333  -78.2254    6.5229  -77.6290    6.9647  -77.6297    6.9688  -77.6375    6.9630
  3.760  -76.0237    6.4241  -76.0764    6.4216  -76.0253    6.4112  -75.4457    6.8419  -75.4476    6.8519  -75.4556    6.8466
  3.770  -73.8626    6.3381  -73.9170    6.3364  -73.8668    6.3258  -73.3030    6.7453  -73.3053    6.7625  -73.3137    6.7576
  3.780  -71.7381    6.2785  -71.7943    6.2783  -71.7449    6.2674  -71.1959    6.6758  -71.1981    6.7013  -71.2068    6.6968
  3.790  -69.6450    6.2467  -69.7033    6.2488  -69.6547    6.2375  -69.1196    6.6346  -69.1213    6.6697  -69.1303    6.6656
  3.800  -67.5789    6.2445  -67.6396    6.2498  -67.5916    6.2379  -67.0696    6.6237  -67.0702    6.6697  -67.0796    6.6660
  3.810  -65.5351    6.2746  -65.5985    6.2838  -65.5512    6.2712  -65.0416    6.6454  -65.0407    6.7039  -65.0506    6.7005
  3.820  -63.5095    6.3403  -63.5761    6.3542  -63.5293    6.3408  -63.0315    6.7032  -63.0287    6.7756  -63.0390    6.7725
  3.830  -61.4981    6.4456  -61.5682    6.4652  -61.5219    6.4507  -61.0354    6.8010  -61.0303    6.8891  -61.0411    6.8862
  3.840  -59.4973    6.5958  -59.5715    6.6219  -59.5256    6.6062  -59.0498    6.9441  -59.0423    7.0497  -59.0536    7.0471
  3.850  -57.5040    6.7973  -57.5828    6.8309  -57.5373    6.8138  -57.0718    7.1387  -57.0617    7.2639  -57.0736    7.2615
  3.860  -55.5158    7.0579  -55.6000    7.1000  -55.5548    7.0813  -55.0992    7.3928  -55.0865    7.5398  -55.0990    7.5375
  3.870  -53.5315    7.3872  -53.6218    7.4389  -53.5770    7.4182  -53.1310    7.7157  -53.1158    7.8871  -53.1290    7.8848
  3.880  -51.5515    7.7967  -51.6489    7.8590  -51.6045    7.8362  -51.1678    8.1189  -51.1504    8.3174  -51.1644    8.3150
  3.890  -49.5786    8.2999  -49.6843    8.3740  -49.6401    8.3487  -49.2125    8.6158  -49.1938    8.8445  -49.2085    8.8419
  3.900  -47.6190    8.9128  -47.7343    8.9999  -47.6905    8.9716  -47.2718    9.2221  -47.2528    9.4842  -47.2683    9.4813
  3.910  -45.6839    9.6531  -45.8104    9.7544  -45.7668    9.7226  -45.3571    9.9554  -45.3395   10.2545  -45.3557   10.2511
  3.920  -43.7911   10.5400  -43.9307   10.6569  -43.8875   10.6209  -43.4866   10.8345  -43.4726   11.1743  -43.4897   11.1701
  3.930  -41.9677   11.5924  -42.1225   11.7259  -42.0796   11.6850  -41.6876   11.8776  -41.6805   12.2618  -41.6982   12.2567
  3.940  -40.2520   12.8255  -40.4247   12.9768  -40.3819   12.9299  -39.9986   13.0994  -40.0026   13.5314  -40.0209   13.5253
  3.950  -38.6955   14.2463  -38.8890   14.4162  -38.8462   14.3620  -38.4714   14.5058  -38.4916   14.9886  -38.5103   14.9810
  3.960  -37.3629   15.8454  -37.5805   16.0347  -37.5371   15.9713  -37.1702   16.0864  -37.2131   16.6216  -37.2317   16.6124
  3.970  -36.3275   17.5878  -36.5729   17.7967  -36.5278   17.7221  -36.1678   17.8051  -36.2401   18.3926  -36.2584   18.3816
  3.980  -35.6602   19.4034  -35.9377   19.6318  -35.8888   19.5435  -35.5340   19.5907  -35.6425   20.2282  -35.6598   20.2155
  3.990  -35.4113   21.1831  -35.7252   21.4303  -35.6693   21.3260  -35.3173   21.3338  -35.4672   22.0166  -35.4831   22.0024
  4.000  -35.5863   22.7867  -35.9414   23.0513  -35.8738   22.9295  -35.5216   22.8943  -35.7156   23.6162  -35.7295   23.6009
  4.010  -36.1275   24.0669  -36.5285   24.3465  -36.4432   24.2071  -36.0875   24.1261  -36.3245   24.8805  -36.3363   24.8646
  4.020  -36.9115   24.9049  -37.3626   25.1961  -37.2536   25.0417  -36.8910   24.9121  -37.1665   25.6942  -37.1761   25.6783
  4.030  -37.7711   25.2444  -38.2760   25.5431  -38.1380   25.3782  -37.7655   25.1975  -38.0723   26.0058  -38.0798   25.9905
  4.040  -38.5345   25.1043  -39.0955   25.4062  -38.9252   25.2372  -38.5401   25.0024  -38.8702   25.8395  -38.8760   25.8254
  4.050  -39.0625   24.5671  -39.6811   24.8685  -39.4778   24.7020  -39.0771   24.4094  -39.4235   25.2820  -39.4280   25.2691
  4.060  -39.2697   23.7493  -39.9471   24.0474  -39.7119   23.8892  -39.2923   23.5342  -39.6500   24.4522  -39.6535   24.4407
  4.070  -39.1239   22.7711  -39.8617   23.0638  -39.5973   22.9186  -39.1546   22.4959  -39.5211   23.4713  -39.5241   23.4611
  4.080  -38.6335   21.7354  -39.4344   22.0214  -39.1438   21.8922  -38.6727   21.3957  -39.0481   22.4421  -39.0508   22.4331
  4.090  -37.8297   20.7200  -38.6980   20.9978  -38.3841   20.8863  -37.8776   20.3098  -38.2649   21.4417  -38.2676   21.4338
  4.100  -36.7528   19.7777  -37.6944   20.0446  -37.3598   19.9516  -36.8089   19.2887  -37.2138   20.5216  -37.2166   20.5146
  4.110  -35.4424   18.9412  -36.4650   19.1926  -36.1113   19.1183  -35.5054   18.3633  -35.9365   19.7131  -35.9396   19.7068
  4.120  -33.9333   18.2292  -35.0453   18.4568  -34.6738   18.4011  -33.9995   17.5496  -34.4691   19.0325  -34.4726   19.0267
  4.130  -32.2533   17.6515  -33.4630   17.8417  -33.0743   17.8044  -32.3159   16.8547  -32.8405   18.4864  -32.8446   18.4808
  4.140  -30.4244   17.2122  -31.7368   17.3447  -31.3311   17.3254  -30.4710   16.2805  -31.0723   18.0746  -31.0771   18.0687
  4.150  -28.4640   16.9120  -29.8757   16.9578  -29.4525   16.9561  -28.4732   15.8266  -29.1791   17.7919  -29.1848   17.7850
  4.160  -26.3871   16.7465  -27.8768   16.6697  -27.4354   16.6849  -26.3237   15.4925  -27.1682   17.6271  -27.1745   17.6182
  4.170  -24.2072   16.6999  -25.7212   16.4680  -25.2599   16.4990  -24.0168   15.2786  -25.0365   17.5607  -25.0425   17.5485
  4.180  -21.9260   16.7315  -23.3677   16.3469  -22.8835   16.3917  -21.5400   15.1874  -22.7597   17.5600  -22.7632   17.5438
  4.190  -19.4931   16.7678  -20.7502   16.3222  -20.2375   16.3784  -18.8736   15.2249  -20.2632   17.5848  -20.2628   17.5661
  4.200  -16.7420   16.7674  -17.7896   16.4548  -17.2377   16.5204  -15.9897   15.4014  -17.3857   17.6455  -17.3836   17.6229
  4.210  -13.4597   16.8743  -14.4293   16.8572  -13.8215   16.9357  -12.8515   15.7340  -13.9474   17.9163  -13.9372   17.8814
  4.220   -9.6215   17.3555  -10.6605   17.6620   -9.9817   17.7677   -9.4118   16.2486   -9.9403   18.6820   -9.9041   18.6425
  4.230   -5.3382   18.3414   -6.5136   19.0011   -5.7521   19.1444   -5.6105   16.9816   -5.5005   20.1167   -5.4391   20.0946
  4.240   -0.6351   19.8517   -2.0480   20.9621   -1.1824   21.1651   -1.3689   17.9847   -0.7140   22.2776   -0.6432   22.2818
  4.250    4.5712   21.9416    2.7381   23.6134    3.7214   23.9061    3.4162   19.3330    4.4330   25.2371    4.5019   25.2641
  4.260   10.4214   24.7587    7.8922   27.0910    9.0092   27.5089    8.8818   21.1381   10.0085   29.1630   10.0710   29.2075
  4.270   17.0891   28.5704   13.4639   31.6322   14.7336   32.2256   15.2115   23.5688   16.0838   34.3611   16.1391   34.4195
  4.280   24.7688   33.8151   19.4614   37.6057   20.9027   38.4493   22.6540   26.8887   22.6809   41.3220   22.7288   41.3932
  4.290   33.6484   41.2075   25.7852   45.5471   27.4089   46.7550   31.5489   31.5246   29.6828   50.7972   29.7228   50.8814
  4.300   43.8079   51.9277   32.1075   56.1910   33.8955   57.9379   42.3583   38.1989   36.6401   63.9019   36.6708   64.0002
  4.310   54.9040   67.9286   37.6641   70.4457   39.5196   72.9938   55.6846   48.2010   42.3440   82.1933   42.3627   82.3066
  4.320   65.2740   92.2767   40.9776   89.1927   42.6143   92.9029   72.1857   63.9702   43.9344  107.4614   43.9394  107.5911
  4.330   69.7868  128.7189   39.7435  112.8168   40.4731  118.0641   91.9756   90.3880   35.4129  140.2871   35.4039  140.4431
  4.340   57.0412  177.5107   31.2107  141.0271   29.6611  147.8015  111.6858  137.3786    7.3329  175.0886    7.2809  175.3044
  4.350   13.7972  226.4451   10.8779  174.3077    5.0877  181.0983  112.0064  221.1149  -43.7382  193.3794  -43.9524  193.6193
  4.360  -62.7889  252.0671  -36.6367  207.2676  -46.7850  209.5985   30.4373  329.8408  -97.3241  178.2691  -97.6697  178.3120
  4.370 -150.1307  219.1187 -111.5462  197.5045 -119.8039  192.8847 -142.9535  330.1059 -128.7074  142.4693 -128.9376  142.3306
  4.380 -184.5254  146.6124 -150.5633  143.4025 -153.4882  137.4085 -227.0925  212.3601 -138.1885  107.2669 -138.2792  107.1225
  4.390 -177.3075   93.0371 -152.1095   98.2908 -152.3188   93.9310 -220.4733  121.5929 -136.2013   80.2816 -136.2309   80.1850
  4.400 -160.7505   61.9504 -142.8031   70.0575 -142.1619   67.2169 -194.2895   73.1026 -129.8068   61.0479 -129.8191   60.9899
  4.410 -145.0087   43.7242 -132.1990   52.2815 -131.3934   50.4323 -170.0937   47.3377 -122.2647   47.4769 -122.2748   47.4426
  4.420 -131.7995   32.4230 -122.5055   40.5155 -121.7496   39.2806 -150.7840   32.7289 -114.8766   37.7844 -114.8887   37.7641
  4.430 -120.9586   25.0209 -114.0747   32.3597 -113.4226   31.5098 -135.6594   23.8632 -108.0948   30.7252 -108.1094   30.7135
  4.440 -112.0256   19.9423 -106.8187   26.4900 -106.2728   25.8878 -123.6822   18.1594 -102.0247   25.4736 -102.0417   25.4674
  4.450 -104.5799   16.3214 -100.5626   22.1341 -100.1102   21.6960 -114.0246   14.3089  -96.6388   21.4853  -96.6576   21.4828
  4.460  -98.2915   13.6563  -95.1353   18.8182  -94.7612   18.4918 -106.0906   11.6043  -91.8646   18.3978  -91.8849   18.3980
  4.470  -92.9117   11.6413  -90.3911   16.2388  -90.0810   15.9905  -99.4587    9.6410  -87.6212   15.9655  -87.6427   15.9677
  4.480  -88.2534   10.0828  -86.2107   14.1948  -85.9526   14.0021  -93.8282    8.1759  -83.8326   14.0190  -83.8550   14.0228
  4.490  -84.1756    8.8537  -82.4983   12.5486  -82.2826   12.3964  -88.9817    7.0566  -80.4320   12.4388  -80.4553   12.4441
  4.500  -80.5707    7.8678  -79.1770   11.2037  -78.9958   11.0816  -84.7588    6.1841  -77.3629   11.1397  -77.3869   11.1461
  4.510  -77.3553    7.0651  -76.1849   10.0912  -76.0321    9.9917  -81.0396    5.4919  -74.5775   10.0592  -74.6022   10.0666
  4.520  -74.4644    6.4031  -73.4721    9.1605  -73.3425    9.0782  -77.7326    4.9343  -72.0362    9.1511  -72.0615    9.1596
  4.530  -71.8464    5.8508  -70.9979    8.3741  -70.8874    8.3050  -74.7670    4.4791  -69.7057    8.3808  -69.7316    8.3903
  4.540  -69.4600    5.3852  -68.7287    7.7036  -68.6341    7.6448  -72.0872    4.1029  -67.5583    7.7218  -67.5849    7.7322
  4.550  -67.2718    4.9892  -66.6371    7.1272  -66.5557    7.0765  -69.6490    3.7888  -65.5708    7.1537  -65.5979    7.1649
  4.560  -65.2546    4.6494  -64.7001    6.6281  -64.6298    6.5838  -67.4170    3.5240  -63.7234    6.6604  -63.7511    6.6724
  4.570  -63.3858    4.3558  -62.8986    6.1930  -62.8374    6.1538  -65.3622    3.2988  -61.9995    6.2293  -62.0278    6.2422
  4.580  -61.6466    4.1004  -61.2164    5.8115  -61.1628    5.7763  -63.4610    3.1059  -60.3849    5.8505  -60.4139    5.8642
  4.590  -60.0215    3.8769  -59.6396    5.4750  -59.5925    5.4430  -61.6937    2.9396  -58.8677    5.5158  -58.8972    5.5303
  4.600  -58.4972    3.6802  -58.1567    5.1767  -58.1150    5.1474  -60.0438    2.7952  -57.4372    5.2186  -57.4674    5.2339
  4.610  -57.0623    3.5064  -56.7576    4.9112  -56.7203    4.8840  -58.4976    2.6692  -56.0845    4.9536  -56.1154    4.9697
  4.620  -55.7073    3.3520  -55.4335    4.6739  -55.3999    4.6483  -57.0433    2.5588  -54.8018    4.7163  -54.8335    4.7333
  4.630  -54.4238    3.2143  -54.1770    4.4609  -54.1464    4.4367  -55.6708    2.4616  -53.5823    4.5031  -53.6147    4.5209
  4.640  -53.2046    3.0913  -52.9815    4.2691  -52.9534    4.2459  -54.3716    2.3758  -52.4199    4.3108  -52.4531    4.3295
  4.650  -52.0434    2.9808  -51.8413    4.0959  -51.8151    4.0736  -53.1382    2.2998  -51.3095    4.1370  -51.3436    4.1565
  4.660  -50.9349    2.8816  -50.7513    3.9391  -50.7266    3.9174  -51.9641    2.2322  -50.2464    3.9794  -50.2813    3.9998
  4.670  -49.8741    2.7921  -49.7070    3.7968  -49.6834    3.7755  -50.8437    2.1722  -49.2265    3.8362  -49.2623    3.8575
  4.680  -48.8568    2.7113  -48.7045    3.6673  -48.6817    3.6464  -49.7721    2.1187  -48.2461    3.7058  -48.2827    3.7280
  4.690  -47.8793    2.6384  -47.7402    3.5494  -47.7179    3.5286  -48.7447    2.0710  -47.3019    3.5868  -47.3395    3.6100
  4.700  -46.9381    2.5724  -46.8110    3.4418  -46.7889    3.4211  -47.7579    2.0286  -46.3910    3.4782  -46.4296    3.5024
  4.710  -46.0303    2.5128  -45.9140    3.3435  -45.8919    3.3229  -46.8080    1.9909  -45.5107    3.3788  -45.5503    3.4040
  4.720  -45.1531    2.4588  -45.0468    3.2537  -45.0244    3.2330  -45.8919    1.9574  -44.6586    3.2879  -44.6994    3.3141
  4.730  -44.3042    2.4101  -44.2069    3.1716  -44.1841    3.1507  -45.0071    1.9278  -43.8326    3.2047  -43.8745    3.2319
  4.740  -43.4813    2.3662  -43.3922    3.0964  -43.3688    3.0754  -44.1508    1.9018  -43.0307    3.1285  -43.0738    3.1568
  4.750  -42.6823    2.3267  -42.6010    3.0278  -42.5767    3.0065  -43.3209    1.8790  -42.2511    3.0587  -42.2954    3.0882
  4.760  -41.9056    2.2914  -41.8313    2.9651  -41.8060    2.9435  -42.5153    1.8593  -41.4921    2.9950  -41.5378    3.0256
  4.770  -41.1494    2.2598  -41.0817    2.9080  -41.0553    2.8860  -41.7321    1.8424  -40.7522    2.9367  -40.7992    2.9685
  4.780  -40.4122    2.2319  -40.3506    2.8560  -40.3229    2.8336  -40.9697    1.8282  -40.0301    2.8836  -40.0785    2.9167
  4.790  -39.6925    2.2074  -39.6367    2.8088  -39.6075    2.7860  -40.2264    1.8166  -39.3243    2.8353  -39.3743    2.8697
  4.800  -38.9891    2.1861  -38.9388    2.7661  -38.9079    2.7429  -39.5008    1.8074  -38.6338    2.7916  -38.6853    2.8273
  4.810  -38.3008    2.1679  -38.2556    2.7278  -38.2230    2.7040  -38.7916    1.8006  -37.9574    2.7521  -38.0105    2.7892
  4.820  -37.6263    2.1526  -37.5860    2.6935  -37.5515    2.6692  -38.0976    1.7961  -37.2940    2.7168  -37.3488    2.7552
  4.830  -36.9648    2.1402  -36.9291    2.6630  -36.8926    2.6382  -37.4175    1.7938  -36.6426    2.6852  -36.6993    2.7252
  4.840  -36.3151    2.1306  -36.2839    2.6364  -36.2452    2.6109  -36.7503    1.7937  -36.0024    2.6575  -36.0609    2.6990
  4.850  -35.6763    2.1237  -35.6495    2.6133  -35.6084    2.5872  -36.0949    1.7957  -35.3724    2.6333  -35.4329    2.6764
  4.860  -35.0477    2.1195  -35.0250    2.5937  -34.9814    2.5669  -35.4505    1.7999  -34.7519    2.6126  -34.8145    2.6574
  4.870  -34.4282    2.1180  -34.4096    2.5775  -34.3633    2.5500  -34.8161    1.8062  -34.1399    2.5953  -34.2047    2.6419
  4.880  -33.8172    2.1192  -33.8025    2.5647  -33.7534    2.5365  -34.1908    1.8147  -33.5359    2.5813  -33.6030    2.6297
  4.890  -33.2138    2.1230  -33.2030    2.5552  -33.1509    2.5262  -33.5738    1.8255  -32.9389    2.5706  -33.0084    2.6210
  4.900  -32.6173    2.1295  -32.6104    2.5490  -32.5551    2.5192  -32.9644    1.8384  -32.3484    2.5632  -32.4205    2.6156
  4.910  -32.0271    2.1388  -32.0239    2.5461  -31.9653    2.5154  -32.3618    1.8537  -31.7636    2.5591  -31.8384    2.6136
  4.920  -31.4423    2.1508  -31.4429    2.5464  -31.3807    2.5149  -31.7651    1.8713  -31.1839    2.5582  -31.2615    2.6149
  4.930  -30.8625    2.1657  -30.8668    2.5502  -30.8008    2.5177  -31.1738    1.8915  -30.6085    2.5606  -30.6892    2.6197
  4.940  -30.2867    2.1836  -30.2948    2.5573  -30.2249    2.5239  -30.5871    1.9141  -30.0370    2.5664  -30.1208    2.6279
  4.950  -29.7146    2.2046  -29.7264    2.5680  -29.6523    2.5335  -30.0044    1.9395  -29.4685    2.5756  -29.5558    2.6397
  4.960  -29.1453    2.2288  -29.1609    2.5822  -29.0823    2.5466  -29.4248    1.9676  -28.9026    2.5883  -28.9934    2.6552
  4.970  -28.5782    2.2564  -28.5977    2.6001  -28.5144    2.5634  -28.8479    1.9988  -28.3385    2.6046  -28.4331    2.6744
  4.980  -28.0128    2.2875  -28.0361    2.6219  -27.9478    2.5841  -28.2728    2.0330  -27.7756    2.6247  -27.8743    2.6976
  4.990  -27.4483    2.3224  -27.4756    2.6478  -27.3820    2.6087  -27.6989    2.0707  -27.2133    2.6488  -27.3163    2.7249
  5.000  -26.8842    2.3612  -26.9155    2.6779  -26.8163    2.6376  -27.1256    2.1119  -26.6509    2.6770  -26.7585    2.7565
  5.010  -26.3197    2.4044  -26.3552    2.7126  -26.2500    2.6708  -26.5521    2.1569  -26.0878    2.7095  -26.2003    2.7928
  5.020  -25.7542    2.4521  -25.7940    2.7520  -25.6824    2.7088  -25.9777    2.2060  -25.5232    2.7467  -25.6410    2.8338
  5.030  -25.1871    2.5048  -25.2312    2.7966  -25.1129    2.7519  -25.4018    2.2596  -24.9566    2.7888  -25.0800    2.8801
  5.040  -24.6176    2.5629  -24.6662    2.8467  -24.5407    2.8004  -24.8236    2.3180  -24.3871    2.8361  -24.5165    2.9319
  5.050  -24.0450    2.6267  -24.0982    2.9028  -23.9651    2.8547  -24.2422    2.3817  -23.8140    2.8892  -23.9499    2.9897
  5.060  -23.4686    2.6969  -23.5267    2.9653  -23.3853    2.9154  -23.6571    2.4511  -23.2366    2.9483  -23.3795    3.0540
  5.070  -22.8877    2.7741  -22.9507    3.0348  -22.8007    2.9830  -23.0672    2.5267  -22.6541    3.0142  -22.8044    3.1253
  5.080  -22.3014    2.8589  -22.3697    3.1121  -22.2103    3.0582  -22.4719    2.6092  -22.0655    3.0872  -22.2240    3.2043
  5.090  -21.7091    2.9521  -21.7827    3.1978  -21.6133    3.1417  -21.8702    2.6994  -21.4702    3.1683  -21.6375    3.2918
  5.100  -21.1099    3.0548  -21.1891    3.2930  -21.0089    3.2345  -21.2612    2.7980  -20.8671    3.2581  -21.0440    3.3886
  5.110  -20.5031    3.1679  -20.5881    3.3986  -20.3963    3.3374  -20.6440    2.9059  -20.2553    3.3576  -20.4426    3.4958
  5.120  -19.8878    3.2927  -19.9788    3.5158  -19.7745    3.4518  -20.0177    3.0244  -19.6340    3.4679  -19.8327    3.6144
  5.130  -19.2633    3.4306  -19.3606    3.6462  -19.1428    3.5790  -19.3813    3.1546  -19.0020    3.5903  -19.2132    3.7459
  5.140  -18.6290    3.5835  -18.7327    3.7913  -18.5003    3.7206  -18.7339    3.2981  -18.3584    3.7261  -18.5834    3.8919
  5.150  -17.9842    3.7531  -18.0946    3.9531  -17.8463    3.8785  -18.0744    3.4565  -17.7024    3.8772  -17.9426    4.0542
  5.160  -17.3285    3.9418  -17.4458    4.1339  -17.1801    4.0548  -17.4021    3.6318  -17.0328    4.0455  -17.2900    4.2351
  5.170  -16.6618    4.1522  -16.7862    4.3362  -16.5016    4.2520  -16.7162    3.8265  -16.3491    4.2333  -16.6253    4.4370
  5.180  -15.9845    4.3874  -16.1160    4.5633  -15.8105    4.4732  -16.0162    4.0432  -15.6505    4.4434  -15.9481    4.6631
  5.190  -15.2973    4.6508  -15.4361    4.8186  -15.1075    4.7215  -15.3018    4.2849  -14.9369    4.6788  -15.2588    4.9167
  5.200  -14.6020    4.9461  -14.7481    5.1059  -14.3938    5.0005  -14.5735    4.5552  -14.2083    4.9430  -14.5583    5.2019
  5.210  -13.9017    5.2774  -14.0551    5.4296  -13.6717    5.3141  -13.8323    4.8578  -13.4658    5.2397  -13.8485    5.5230
  5.220  -13.2009    5.6486  -13.3616    5.7938  -12.9451    5.6659  -13.0801    5.1968  -12.7112    5.5731  -13.1325    5.8850
  5.230  -12.5064    6.0626  -12.6745    6.2020  -12.2195    6.0588  -12.3203    5.5758  -11.9475    5.9470  -12.4156    6.2926
  5.240  -11.8273    6.5209  -12.0033    6.6564  -11.5026    6.4940  -11.5578    5.9979  -11.1792    6.3644  -11.7052    6.7500
  5.250  -11.1753    7.0215  -11.3604    7.1557  -10.8038    6.9695  -10.7988    6.4644  -10.4122    6.8268  -11.0118    7.2595
  5.260  -10.5637    7.5569  -10.7603    7.6933  -10.1334    7.4778  -10.0502    6.9738   -9.6528    7.3330  -10.3486    7.8201
  5.270  -10.0055    8.1119  -10.2179    8.2545   -9.4992    8.0045   -9.3184    7.5208   -8.9065    7.8782   -9.7307    8.4256
  5.280   -9.5088    8.6615   -9.7438    8.8151   -8.9017    8.5278   -8.6061    8.0968   -8.1747    8.4547   -9.1738    9.0631
  5.290   -9.0711    9.1723   -9.3396    9.3410   -8.3277    9.0224   -7.9102    8.6923   -7.4524    9.0550   -8.6928    9.7119
  5.300   -8.6730    9.6053   -8.9915    9.7916   -7.7454    9.4691   -7.2225    9.3022   -6.7289    9.6784   -8.3017   10.3404
  5.310   -8.2730    9.9237   -8.6646   10.1236   -7.1091    9.8702   -6.5368    9.9282   -5.9974   10.3365   -8.0113   10.8947
  5.320   -7.7998   10.1029   -8.2929   10.3000   -6.3792   10.2617   -5.8563   10.5710   -5.2711   11.0452   -7.8007   11.2781
  5.330   -7.1498   10.1613   -7.7684   10.3199   -5.5560   10.7001   -5.1867   11.2138   -4.5851   11.7927   -7.5428   11.3798
  5.340   -6.2330   10.2047   -6.9825   10.2711   -4.6879   11.2067   -4.5098   11.8228   -3.9513   12.5175   -6.9966   11.2230
  5.350   -5.0735   10.3770   -5.9229   10.2971   -3.7998   11.7321   -3.7712   12.3789   -3.3074   13.1541   -6.0108   11.0328
  5.360   -3.7677   10.7240   -4.6608   10.4784   -2.8322   12.2285   -2.9032   12.9028   -2.5468   13.7056   -4.6412   11.0376
  5.370   -2.3518   11.2188   -3.2474   10.8250   -1.6951   12.7237   -1.8532   13.4504   -1.5874   14.2422   -3.0198   11.3376
  5.380   -0.8063   11.8593   -1.6935   11.3429   -0.3365   13.3002   -0.5961   14.0963   -0.3956   14.8592   -1.2479   11.9496
  5.390    0.8885   12.6815    0.0004   12.0563    1.2484   14.0475    0.8659   14.9178    1.0236   15.6487    0.6164   12.8665
  5.400    2.7341   13.7362    1.8284   12.9990    3.0386   15.0409    2.5108   15.9844    2.6418   16.6885    2.5450   14.0840
  5.410    4.7197   15.0750    3.7809   14.2076    5.0053   16.3416    4.3073   17.3561    4.4212   18.0421    4.5259   15.6119
  5.420    6.8299   16.7517    5.8481   15.7229    7.1215   18.0075    6.2219   19.0890    6.3230   19.7669    6.5519   17.4783
  5.430    9.0467   18.8281    8.0196   17.5954    9.3609   20.1038    8.2190   21.2439    8.3065   21.9237    8.6120   19.7302
  5.440   11.3448   21.3816   10.2812   19.8908   11.6918   22.7126   10.2548   23.8936   10.3239   24.5842   10.6828   22.4345
  5.450   13.6831   24.5111   12.6071   22.6953   14.0657   25.9394   12.2677   27.1270   12.3089   27.8354   12.7199   25.6769
  5.460   15.9909   28.3404   14.9497   26.1195   16.4019   29.9166   14.1643   31.0501   14.1636   31.7797   14.6470   29.5616
  5.470   18.1483   33.0190   17.2240   30.3012   18.5640   34.8043   15.8007   35.7816   15.7394   36.5294   16.3395   34.2074
  5.480   19.9572   38.7152   19.2846   35.4040   20.3280   40.7798   16.9589   41.4397   16.8159   42.1919   17.6042   39.7368
  5.490   21.1027   45.5928   20.8910   41.6069   21.3387   48.0096   17.3194   48.1125   17.0767   48.8397   18.1518   46.2529
  5.500   21.1067   53.7564   21.6622   49.0706   21.0616   56.5824   16.4374   55.8021   16.0927   56.4563   17.5697   53.7925
  5.510   19.2950   63.1413   21.0254   57.8612   18.7557   66.3799   13.7409   64.3302   13.3273   64.8536   15.3057   62.2406
  5.520   14.8308   73.3300   18.1944   67.8004   13.5324   76.8724    8.5936   73.2053    8.1958   73.5612   10.7038   71.1953
  5.530    6.9178   83.3310   12.2616   78.2342    4.6132   86.8960    0.4843   81.4917    0.2218   81.7190    3.1633   79.8051
  5.540   -4.7380   91.4990    2.5358   87.8152   -8.1440   94.6273  -10.6196   87.8158  -10.6732   88.0625   -7.5025   86.7098
  5.550  -19.3497   95.9139  -10.8468   94.5938  -23.6623   98.0896  -23.8884   90.7126  -23.8117   91.1688  -20.6083   90.3370
  5.560  -34.9096   95.3025  -26.4208   96.7396  -39.6401   96.1832  -37.6101   89.3210  -37.6297   90.0558  -34.4725   89.6404
  5.570  -48.9514   89.8589  -41.7035   93.6181  -53.5115   89.4417  -49.8147   83.9414  -50.1378   84.8185  -47.0261   84.7780
  5.580  -59.7247   81.1154  -54.3770   86.2256  -63.6725   79.6905  -59.1476   75.8811  -59.8104   76.6675  -56.7770   77.0249
  5.590  -66.7500   71.0063  -63.3070   76.4991  -69.8951   68.9690  -65.2617   66.7292  -66.1463   67.2564  -63.2827   68.0136
  5.600  -70.5130   61.0384  -68.5986   66.2678  -72.8659   58.7312  -68.5720   57.7244  -69.5174   57.9455  -66.9182   59.0434
  5.610  -71.8711   52.0411  -71.0218   56.7054  -73.5420   49.6972  -69.7935   49.5605  -70.6745   49.5140  -68.3917   50.8572
  5.620  -71.6432   44.3102  -71.4651   48.3405  -72.7668   42.0638  -69.6158   42.4951  -70.3616   42.2519  -68.4012   43.7464
  5.630  -70.4563   37.8375  -70.6667   41.2849  -71.1549   35.7557  -68.5749   36.5305  -69.1576   36.1616  -67.4960   37.7350
  5.640  -68.7386   32.4825  -69.1555   35.4443  -69.1108   30.5936  -67.0439   31.5533  -67.4605   31.1177  -66.0640   32.7230
  5.650  -66.7639   28.0676  -67.2816   30.6486  -66.8861   26.3807  -65.2654   27.4146  -65.5262   26.9581  -64.3630   28.5682
  5.660  -64.6995   24.4230  -65.2664   26.7162  -64.6316   22.9388  -63.3904   23.9679  -63.5120   23.5264  -62.5587   25.1255
  5.670  -62.6438   21.4015  -63.2443   23.4792  -62.4354   20.1172  -61.5085   21.0849  -61.5125   20.6861  -60.7543   22.2619
  5.680  -60.6518   18.8821  -61.2914   20.7916  -60.3479   17.7918  -59.6705   18.6591  -59.5823   18.3234  -59.0100   19.8606
  5.690  -58.7525   16.7678  -59.4428   18.5316  -58.3941   15.8597  -57.9029   16.6053  -57.7510   16.3443  -57.3543   17.8226
  5.700  -56.9586   14.9811  -57.7059   16.6035  -56.5816   14.2364  -56.2185   14.8567  -56.0309   14.6719  -55.7934   16.0687
  5.710  -55.2734   13.4608  -56.0729   14.9375  -54.9052   12.8546  -54.6224   13.3607  -54.4228   13.2447  -54.3202   14.5409
  5.720  -53.6950   12.1587  -54.5319   13.4867  -53.3524   11.6638  -53.1162   12.0751  -52.9211   12.0153  -52.9244   13.2000
  5.730  -52.2185   11.0361  -53.0736   12.2187  -51.9090   10.6275  -51.6989   10.9653  -51.5173   10.9476  -51.5978   12.0192
  5.740  -50.8374   10.0626  -51.6924   11.1089  -50.5621    9.7195  -50.3675   10.0024  -50.2026   10.0146  -50.3358   10.9785
  5.750  -49.5450    9.2135  -50.3851   10.1368  -49.3014    8.9202  -49.1177    9.1627  -48.9694    9.1951  -49.1362   10.0608
  5.760  -48.3344    8.4690  -49.1495    9.2840  -48.1186    8.2139  -47.9443    8.4264  -47.8109    8.4722  -47.9974    9.2506
  5.770  -47.1991    7.8129  -47.9826    8.5340  -47.0069    7.5879  -46.8419    7.7776  -46.7209    7.8320  -46.9177    8.5339
  5.780  -46.1327    7.2320  -46.8815    7.8723  -45.9604    7.0312  -45.8050    7.2029  -45.6942    7.2628  -45.8948    7.8981
  5.790  -45.1296    6.7153  -45.8423    7.2864  -44.9739    6.5346  -44.8284    6.6915  -44.7258    6.7550  -44.9259    7.3324
  5.800  -44.1844    6.2539  -44.8611    6.7656  -44.0427    6.0901  -43.9071    6.2344  -43.8110    6.3003  -44.0081    6.8273
  5.810  -43.2923    5.8401  -43.9340    6.3010  -43.1625    5.6910  -43.0367    5.8243  -42.9458    5.8917  -43.1381    6.3747
  5.820  -42.4490    5.4677  -43.0572    5.8848  -42.3293    5.3315  -42.2131    5.4550  -42.1262    5.5233  -42.3127    5.9676
  5.830  -41.6504    5.1314  -42.2269    5.5106  -41.5394    5.0066  -41.4324    5.1211  -41.3488    5.1900  -41.5291    5.6003
  5.840  -40.8930    4.8267  -41.4395    5.1730  -40.7895    4.7120  -40.6912    4.8183  -40.6103    4.8877  -40.7841    5.2677
  5.850  -40.1735    4.5497  -40.6920    4.8674  -40.0767    4.4442  -39.9866    4.5428  -39.9078    4.6126  -40.0750    4.9657
  5.860  -39.4890    4.2971  -39.9813    4.5898  -39.3980    4.2001  -39.3156    4.2915  -39.2386    4.3615  -39.3994    4.6906
  5.870  -38.8367    4.0663  -39.3046    4.3368  -38.7510    3.9768  -38.6758    4.0616  -38.6003    4.1317  -38.7547    4.4392
  5.880  -38.2144    3.8547  -38.6595    4.1058  -38.1334    3.7722  -38.0648    3.8506  -37.9906    3.9209  -38.1389    4.2089
  5.890  -37.6197    3.6602  -38.0436    3.8940  -37.5430    3.5842  -37.4806    3.6567  -37.4075    3.7270  -37.5500    3.9975
  5.900  -37.0508    3.4811  -37.4549    3.6996  -36.9779    3.4110  -36.9212    3.4779  -36.8491    3.5483  -36.9860    3.8028
  5.910  -36.5058    3.3158  -36.8914    3.5205  -36.4365    3.2511  -36.3851    3.3128  -36.3138    3.3832  -36.4453    3.6231
  5.920  -35.9831    3.1628  -36.3514    3.3552  -35.9170    3.1032  -35.8704    3.1599  -35.7999    3.2304  -35.9264    3.4569
  5.930  -35.4811    3.0210  -35.8333    3.2023  -35.4180    2.9660  -35.3760    3.0181  -35.3062    3.0886  -35.4278    3.3029
  5.940  -34.9985    2.8892  -35.3357    3.0605  -34.9382    2.8386  -34.9004    2.8864  -34.8312    2.9568  -34.9483    3.1599
  5.950  -34.5341    2.7666  -34.8572    2.9289  -34.4764    2.7201  -34.4424    2.7637  -34.3739    2.8341  -34.4865    3.0268
  5.960  -34.0867    2.6524  -34.3966    2.8064  -34.0314    2.6096  -34.0010    2.6492  -33.9330    2.7196  -34.0415    2.9027
  5.970  -33.6553    2.5456  -33.9527    2.6921  -33.6022    2.5063  -33.5750    2.5423  -33.5076    2.6126  -33.6123    2.7869
  5.980  -33.2389    2.4458  -33.5247    2.5855  -33.1879    2.4098  -33.1637    2.4423  -33.0969    2.5125  -33.1977    2.6786
  5.990  -32.8365    2.3523  -33.1114    2.4857  -32.7875    2.3193  -32.7662    2.3485  -32.6998    2.4186  -32.7971    2.5771
  6.000  -32.4475    2.2645  -32.7120    2.3921  -32.4003    2.2344  -32.3816    2.2605  -32.3157    2.3305  -32.4097    2.4819
  6.010  -32.0709    2.1821  -32.3258    2.3044  -32.0255    2.1546  -32.0092    2.1778  -31.9438    2.2477  -32.0346    2.3924
  6.020  -31.7062    2.1045  -31.9519    2.2219  -31.6625    2.0795  -31.6484    2.1000  -31.5835    2.1697  -31.6712    2.3082
  6.030  -31.3527    2.0314  -31.5898    2.1443  -31.3105    2.0088  -31.2985    2.0267  -31.2341    2.0962  -31.3189    2.2289
  6.040  -31.0098    1.9624  -31.2387    2.0712  -30.9691    1.9420  -30.9589    1.9575  -30.8950    2.0268  -30.9770    2.1541
  6.050  -30.6769    1.8973  -30.8981    2.0022  -30.6376    1.8789  -30.6292    1.8921  -30.5658    1.9612  -30.6452    2.0834
  6.060  -30.3535    1.8357  -30.5674    1.9370  -30.3155    1.8193  -30.3088    1.8303  -30.2458    1.8992  -30.3227    2.0166
  6.070  -30.0392    1.7774  -30.2461    1.8753  -30.0024    1.7628  -29.9972    1.7717  -29.9347    1.8404  -30.0092    1.9533
  6.080  -29.7334    1.7222  -29.9338    1.8169  -29.6978    1.7093  -29.6941    1.7162  -29.6320    1.7847  -29.7042    1.8933
  6.090  -29.4358    1.6698  -29.6299    1.7615  -29.4014    1.6585  -29.3989    1.6636  -29.3374    1.7318  -29.4074    1.8364
  6.100  -29.1460    1.6200  -29.3342    1.7090  -29.1126    1.6102  -29.1114    1.6136  -29.0503    1.6816  -29.1182    1.7824
  6.110  -28.8636    1.5727  -29.0461    1.6591  -28.8313    1.5643  -28.8312    1.5661  -28.7706    1.6338  -28.8365    1.7310
  6.120  -28.5883    1.5277  -28.7654    1.6116  -28.5570    1.5206  -28.5580    1.5208  -28.4977    1.5883  -28.5617    1.6821
  6.130  -28.3197    1.4848  -28.4918    1.5664  -28.2893    1.4790  -28.2913    1.4777  -28.2316    1.5449  -28.2937    1.6356
  6.140  -28.0576    1.4439  -28.2248    1.5234  -28.0281    1.4393  -28.0310    1.4367  -27.9717    1.5036  -28.0321    1.5911
  6.150  -27.8017    1.4049  -27.9642    1.4824  -27.7731    1.4014  -27.7768    1.3975  -27.7179    1.4641  -27.7767    1.5488
  6.160  -27.5516    1.3677  -27.7097    1.4432  -27.5239    1.3653  -27.5285    1.3601  -27.4700    1.4264  -27.5271    1.5083
  6.170  -27.3073    1.3321  -27.4611    1.4058  -27.2803    1.3307  -27.2856    1.3243  -27.2276    1.3904  -27.2832    1.4696
  6.180  -27.0684    1.2981  -27.2182    1.3700  -27.0422    1.2976  -27.0482    1.2901  -26.9906    1.3559  -27.0447    1.4326
  6.190  -26.8347    1.2655  -26.9806    1.3358  -26.8092    1.2659  -26.8158    1.2574  -26.7587    1.3228  -26.8114    1.3972
  6.200  -26.6060    1.2343  -26.7481    1.3030  -26.5812    1.2356  -26.5885    1.2260  -26.5317    1.2912  -26.5830    1.3633
  6.210  -26.3821    1.2044  -26.5207    1.2716  -26.3580    1.2065  -26.3658    1.1960  -26.3095    1.2608  -26.3595    1.3308
  6.220  -26.1628    1.1757  -26.2980    1.2415  -26.1393    1.1785  -26.1477    1.1672  -26.0918    1.2317  -26.1405    1.2996
  6.230  -25.9480    1.1482  -26.0799    1.2126  -25.9251    1.1517  -25.9340    1.1395  -25.8785    1.2037  -25.9260    1.2696
  6.240  -25.7374    1.1218  -25.8662    1.1849  -25.7152    1.1260  -25.7245    1.1130  -25.6694    1.1768  -25.7157    1.2408
  6.250  -25.5310    1.0964  -25.6568    1.1582  -25.5094    1.1012  -25.5191    1.0874  -25.4644    1.1510  -25.5096    1.2132
  6.260  -25.3286    1.0719  -25.4514    1.1326  -25.3075    1.0774  -25.3176    1.0629  -25.2633    1.1261  -25.3074    1.1866
  6.270  -25.1299    1.0484  -25.2500    1.1079  -25.1094    1.0544  -25.1199    1.0393  -25.0660    1.1021  -25.1091    1.1610
  6.280  -24.9350    1.0258  -25.0524    1.0842  -24.9150    1.0323  -24.9258    1.0166  -24.8724    1.0791  -24.9144    1.1363
  6.290  -24.7437    1.0040  -24.8585    1.0614  -24.7242    1.0110  -24.7353    0.9947  -24.6823    1.0568  -24.7233    1.1126
  6.300  -24.5558    0.9830  -24.6681    1.0393  -24.5368    0.9905  -24.5482    0.9736  -24.4956    1.0354  -24.5357    1.0897
  6.310  -24.3713    0.9627  -24.4812    1.0181  -24.3527    0.9707  -24.3644    0.9532  -24.3121    1.0147  -24.3513    1.0676
  6.320  -24.1899    0.9432  -24.2976    0.9976  -24.1718    0.9516  -24.1838    0.9336  -24.1319    0.9948  -24.1702    1.0462
  6.330  -24.0118    0.9243  -24.1171    0.9778  -23.9940    0.9331  -24.0063    0.9146  -23.9548    0.9755  -23.9923    1.0257
  6.340  -23.8366    0.9061  -23.9398    0.9587  -23.8193    0.9153  -23.8317    0.8963  -23.7806    0.9568  -23.8173    1.0058
  6.350  -23.6643    0.8885  -23.7655    0.9403  -23.6474    0.8980  -23.6601    0.8786  -23.6094    0.9388  -23.6452    0.9865
  6.360  -23.4949    0.8714  -23.5941    0.9225  -23.4784    0.8813  -23.4913    0.8615  -23.4409    0.9214  -23.4760    0.9679
  6.370  -23.3283    0.8550  -23.4255    0.9052  -23.3122    0.8652  -23.3252    0.8450  -23.2752    0.9045  -23.3095    0.9500
  6.380  -23.1643    0.8390  -23.2596    0.8885  -23.1485    0.8496  -23.1617    0.8290  -23.1121    0.8882  -23.1457    0.9326
  6.390  -23.0029    0.8236  -23.0964    0.8723  -22.9875    0.8344  -23.0008    0.8135  -22.9515    0.8724  -22.9845    0.9157
  6.400  -22.8440    0.8087  -22.9358    0.8567  -22.8289    0.8197  -22.8424    0.7985  -22.7935    0.8571  -22.8258    0.8994
  6.410  -22.6875    0.7942  -22.7776    0.8415  -22.6728    0.8055  -22.6864    0.7840  -22.6379    0.8422  -22.6695    0.8836
  6.420  -22.5335    0.7802  -22.6219    0.8268  -22.5191    0.7917  -22.5328    0.7699  -22.4846    0.8278  -22.5156    0.8682
  6.430  -22.3817    0.7666  -22.4686    0.8126  -22.3676    0.7784  -22.3814    0.7563  -22.3336    0.8138  -22.3639    0.8533
  6.440  -22.2321    0.7534  -22.3175    0.7987  -22.2184    0.7654  -22.2323    0.7431  -22.1848    0.8003  -22.2146    0.8389
  6.450  -22.0848    0.7405  -22.1687    0.7853  -22.0713    0.7528  -22.0853    0.7302  -22.0382    0.7871  -22.0673    0.8249
  6.460  -21.9396    0.7281  -22.0220    0.7723  -21.9264    0.7405  -21.9405    0.7177  -21.8936    0.7743  -21.9223    0.8113
  6.470  -21.7964    0.7160  -21.8774    0.7596  -21.7835    0.7286  -21.7976    0.7056  -21.7512    0.7619  -21.7792    0.7980
  6.480  -21.6552    0.7043  -21.7349    0.7473  -21.6426    0.7171  -21.6568    0.6939  -21.6107    0.7498  -21.6382    0.7852
  6.490  -21.5160    0.6929  -21.5944    0.7354  -21.5036    0.7058  -21.5179    0.6825  -21.4721    0.7381  -21.4991    0.7727
  6.500  -21.3787    0.6818  -21.4558    0.7238  -21.3666    0.6949  -21.3809    0.6713  -21.3355    0.7266  -21.3620    0.7606
  6.510  -21.2433    0.6710  -21.3191    0.7125  -21.2314    0.6842  -21.2458    0.6605  -21.2006    0.7155  -21.2267    0.7488
  6.520  -21.1096    0.6606  -21.1843    0.7015  -21.0980    0.6739  -21.1124    0.6500  -21.0676    0.7047  -21.0932    0.7373
  6.530  -20.9778    0.6503  -21.0513    0.6908  -20.9664    0.6638  -20.9809    0.6398  -20.9363    0.6942  -20.9614    0.7261
  6.540  -20.8476    0.6404  -20.9200    0.6804  -20.8365    0.6540  -20.8510    0.6299  -20.8068    0.6839  -20.8314    0.7152
  6.550  -20.7192    0.6307  -20.7905    0.6702  -20.7082    0.6444  -20.7228    0.6202  -20.6789    0.6739  -20.7031    0.7046
  6.560  -20.5924    0.6213  -20.6626    0.6603  -20.5816    0.6351  -20.5962    0.6108  -20.5526    0.6642  -20.5764    0.6942
  6.570  -20.4672    0.6122  -20.5364    0.6507  -20.4566    0.6260  -20.4712    0.6016  -20.4279    0.6547  -20.4513    0.6842
  6.580  -20.3435    0.6032  -20.4117    0.6413  -20.3332    0.6172  -20.3478    0.5926  -20.3048    0.6454  -20.3278    0.6744
  6.590  -20.2214    0.5945  -20.2886    0.6322  -20.2113    0.6085  -20.2259    0.5839  -20.1832    0.6364  -20.2058    0.6648
  6.600  -20.1008    0.5860  -20.1670    0.6233  -20.0909    0.6001  -20.1055    0.5754  -20.0631    0.6276  -20.0853    0.6554
  6.610  -19.9817    0.5777  -20.0470    0.6146  -19.9719    0.5919  -19.9865    0.5671  -19.9444    0.6190  -19.9663    0.6463
  6.620  -19.8639    0.5696  -19.9283    0.6061  -19.8544    0.5838  -19.8690    0.5590  -19.8272    0.6106  -19.8487    0.6374
  6.630  -19.7476    0.5617  -19.8111    0.5978  -19.7382    0.5760  -19.7528    0.5511  -19.7113    0.6024  -19.7324    0.6288
  6.640  -19.6327    0.5540  -19.6953    0.5897  -19.6235    0.5683  -19.6380    0.5434  -19.5968    0.5944  -19.6176    0.6203
  6.650  -19.5190    0.5465  -19.5809    0.5818  -19.5100    0.5609  -19.5246    0.5358  -19.4837    0.5866  -19.5041    0.6120
  6.660  -19.4067    0.5391  -19.4678    0.5741  -19.3979    0.5536  -19.4124    0.5285  -19.3718    0.5790  -19.3919    0.6039
  6.670  -19.2957    0.5319  -19.3559    0.5665  -19.2870    0.5464  -19.3015    0.5213  -19.2612    0.5715  -19.2810    0.5960
  6.680  -19.1859    0.5249  -19.2454    0.5592  -19.1774    0.5394  -19.1919    0.5143  -19.1518    0.5643  -19.1713    0.5883
  6.690  -19.0774    0.5181  -19.1361    0.5520  -19.0690    0.5326  -19.0835    0.5074  -19.0437    0.5571  -19.0629    0.5808
  6.700  -18.9701    0.5114  -19.0280    0.5449  -18.9618    0.5259  -18.9763    0.5007  -18.9368    0.5502  -18.9556    0.5734
  6.710  -18.8639    0.5048  -18.9212    0.5380  -18.8558    0.5194  -18.8703    0.4942  -18.8310    0.5433  -18.8496    0.5662
  6.720  -18.7589    0.4984  -18.8155    0.5313  -18.7510    0.5130  -18.7654    0.4878  -18.7264    0.5367  -18.7447    0.5591
  6.730  -18.6551    0.4922  -18.7109    0.5247  -18.6472    0.5068  -18.6617    0.4815  -18.6229    0.5301  -18.6409    0.5522
  6.740  -18.5523    0.4860  -18.6075    0.5182  -18.5446    0.5006  -18.5590    0.4754  -18.5205    0.5237  -18.5383    0.5455
  6.750  -18.4507    0.4800  -18.5052    0.5119  -18.4431    0.4946  -18.4575    0.4694  -18.4192    0.5175  -18.4367    0.5388
  6.760  -18.3501    0.4741  -18.4040    0.5058  -18.3426    0.4888  -18.3570    0.4635  -18.3190    0.5114  -18.3362    0.5324
  6.770  -18.2505    0.4684  -18.3039    0.4997  -18.2432    0.4830  -18.2575    0.4578  -18.2198    0.5054  -18.2368    0.5260
  6.780  -18.1520    0.4628  -18.2047    0.4938  -18.1448    0.4774  -18.1591    0.4522  -18.1216    0.4995  -18.1384    0.5198
  6.790  -18.0545    0.4573  -18.1067    0.4880  -18.0475    0.4719  -18.0617    0.4466  -18.0245    0.4937  -18.0410    0.5137
  6.800  -17.9580    0.4519  -18.0096    0.4823  -17.9511    0.4665  -17.9653    0.4412  -17.9283    0.4881  -17.9446    0.5078
  6.810  -17.8625    0.4466  -17.9135    0.4767  -17.8557    0.4612  -17.8698    0.4360  -17.8331    0.4825  -17.8491    0.5019
  6.820  -17.7679    0.4414  -17.8184    0.4712  -17.7612    0.4560  -17.7753    0.4308  -17.7388    0.4771  -17.7546    0.4962
  6.830  -17.6743    0.4363  -17.7242    0.4659  -17.6677    0.4509  -17.6818    0.4257  -17.6455    0.4718  -17.6611    0.4906
  6.840  -17.5815    0.4313  -17.6310    0.4606  -17.5751    0.4459  -17.5891    0.4207  -17.5531    0.4666  -17.5685    0.4851
  6.850  -17.4897    0.4264  -17.5386    0.4555  -17.4834    0.4410  -17.4974    0.4159  -17.4616    0.4615  -17.4767    0.4797
  6.860  -17.3988    0.4216  -17.4472    0.4504  -17.3925    0.4362  -17.4065    0.4111  -17.3710    0.4565  -17.3859    0.4744
  6.870  -17.3088    0.4169  -17.3567    0.4455  -17.3026    0.4315  -17.3165    0.4064  -17.2812    0.4515  -17.2960    0.4692
  6.880  -17.2196    0.4123  -17.2670    0.4406  -17.2135    0.4268  -17.2274    0.4018  -17.1923    0.4467  -17.2069    0.4641
  6.890  -17.1312    0.4078  -17.1782    0.4359  -17.1253    0.4223  -17.1391    0.3973  -17.1043    0.4420  -17.1186    0.4591
  6.900  -17.0437    0.4034  -17.0903    0.4312  -17.0378    0.4178  -17.0517    0.3928  -17.0170    0.4373  -17.0312    0.4542
  6.910  -16.9570    0.3990  -17.0031    0.4266  -16.9512    0.4135  -16.9650    0.3885  -16.9306    0.4328  -16.9446    0.4494
  6.920  -16.8711    0.3948  -16.9168    0.4221  -16.8654    0.4092  -16.8792    0.3842  -16.8450    0.4283  -16.8588    0.4447
  6.930  -16.7860    0.3906  -16.8313    0.4177  -16.7804    0.4049  -16.7941    0.3801  -16.7601    0.4239  -16.7737    0.4401
  6.940  -16.7017    0.3865  -16.7465    0.4133  -16.6962    0.4008  -16.7098    0.3759  -16.6761    0.4195  -16.6895    0.4355
  6.950  -16.6181    0.3824  -16.6626    0.4090  -16.6127    0.3967  -16.6263    0.3719  -16.5928    0.4153  -16.6060    0.4310
  6.960  -16.5353    0.3784  -16.5794    0.4049  -16.5300    0.3927  -16.5436    0.3679  -16.5102    0.4111  -16.5233    0.4266
  6.970  -16.4533    0.3745  -16.4969    0.4007  -16.4480    0.3888  -16.4615    0.3641  -16.4284    0.4070  -16.4413    0.4223
  6.980  -16.3719    0.3707  -16.4152    0.3967  -16.3667    0.3849  -16.3802    0.3602  -16.3473    0.4030  -16.3601    0.4181
  6.990  -16.2913    0.3670  -16.3342    0.3927  -16.2862    0.3811  -16.2996    0.3565  -16.2669    0.3990  -16.2795    0.4139
  7.000  -16.2114    0.3633  -16.2540    0.3888  -16.2064    0.3774  -16.2198    0.3528  -16.1873    0.3951  -16.1997    0.4098
  7.010  -16.1322    0.3596  -16.1744    0.3849  -16.1272    0.3737  -16.1406    0.3492  -16.1083    0.3913  -16.1206    0.4058
  7.020  -16.0536    0.3561  -16.0955    0.3812  -16.0488    0.3701  -16.0621    0.3456  -16.0300    0.3875  -16.0421    0.4018
  7.030  -15.9758    0.3525  -16.0173    0.3775  -15.9710    0.3665  -15.9842    0.3421  -15.9523    0.3838  -15.9643    0.3979
  7.040  -15.8986    0.3491  -15.9398    0.3738  -15.8938    0.3631  -15.9071    0.3386  -15.8754    0.3802  -15.8872    0.3941
  7.050  -15.8220    0.3457  -15.8629    0.3702  -15.8174    0.3596  -15.8305    0.3353  -15.7991    0.3766  -15.8108    0.3904
  7.060  -15.7461    0.3424  -15.7867    0.3667  -15.7415    0.3562  -15.7547    0.3319  -15.7234    0.3731  -15.7349    0.3867
  7.070  -15.6709    0.3391  -15.7111    0.3632  -15.6663    0.3529  -15.6794    0.3286  -15.6483    0.3696  -15.6598    0.3830
  7.080  -15.5962    0.3359  -15.6362    0.3598  -15.5918    0.3496  -15.6048    0.3254  -15.5739    0.3662  -15.5852    0.3794
  7.090  -15.5222    0.3327  -15.5619    0.3564  -15.5178    0.3464  -15.5308    0.3223  -15.5001    0.3629  -15.5113    0.3759
  7.100  -15.4488    0.3296  -15.4882    0.3531  -15.4445    0.3433  -15.4574    0.3191  -15.4269    0.3596  -15.4379    0.3724
  7.110  -15.3760    0.3265  -15.4151    0.3498  -15.3717    0.3401  -15.3846    0.3161  -15.3543    0.3563  -15.3652    0.3690
  7.120  -15.3038    0.3235  -15.3426    0.3466  -15.2995    0.3371  -15.3124    0.3130  -15.2823    0.3531  -15.2930    0.3657
  7.130  -15.2321    0.3205  -15.2707    0.3435  -15.2280    0.3340  -15.2408    0.3101  -15.2108    0.3500  -15.2215    0.3624
  7.140  -15.1610    0.3176  -15.1994    0.3404  -15.1570    0.3311  -15.1697    0.3071  -15.1399    0.3469  -15.1505    0.3591
  7.150  -15.0905    0.3147  -15.1286    0.3373  -15.0865    0.3281  -15.0993    0.3043  -15.0696    0.3439  -15.0801    0.3559
  7.160  -15.0206    0.3118  -15.0584    0.3343  -15.0166    0.3253  -15.0293    0.3014  -14.9999    0.3408  -15.0102    0.3528
  7.170  -14.9512    0.3090  -14.9888    0.3313  -14.9473    0.3224  -14.9599    0.2986  -14.9307    0.3379  -14.9409    0.3497
  7.180  -14.8823    0.3063  -14.9197    0.3284  -14.8785    0.3196  -14.8911    0.2959  -14.8620    0.3350  -14.8721    0.3466
  7.190  -14.8140    0.3036  -14.8511    0.3255  -14.8102    0.3169  -14.8228    0.2932  -14.7939    0.3321  -14.8039    0.3436
  7.200  -14.7462    0.3009  -14.7831    0.3227  -14.7425    0.3141  -14.7550    0.2905  -14.7263    0.3293  -14.7361    0.3406
  7.210  -14.6790    0.2983  -14.7156    0.3199  -14.6753    0.3115  -14.6878    0.2879  -14.6592    0.3265  -14.6689    0.3377
  7.220  -14.6122    0.2957  -14.6487    0.3171  -14.6085    0.3088  -14.6210    0.2853  -14.5926    0.3238  -14.6023    0.3348
  7.230  -14.5460    0.2931  -14.5822    0.3144  -14.5423    0.3062  -14.5548    0.2827  -14.5266    0.3211  -14.5361    0.3320
  7.240  -14.4802    0.2906  -14.5163    0.3118  -14.4766    0.3037  -14.4890    0.2802  -14.4610    0.3184  -14.4704    0.3292
  7.250  -14.4150    0.2882  -14.4508    0.3091  -14.4114    0.3011  -14.4238    0.2777  -14.3959    0.3158  -14.4052    0.3265
  7.260  -14.3502    0.2857  -14.3858    0.3065  -14.3467    0.2986  -14.3590    0.2753  -14.3313    0.3132  -14.3406    0.3238
  7.270  -14.2859    0.2833  -14.3214    0.3040  -14.2825    0.2962  -14.2948    0.2729  -14.2672    0.3106  -14.2763    0.3211
  7.280  -14.2221    0.2809  -14.2574    0.3015  -14.2187    0.2938  -14.2310    0.2705  -14.2036    0.3081  -14.2126    0.3185
  7.290  -14.1587    0.2786  -14.1939    0.2990  -14.1554    0.2914  -14.1676    0.2682  -14.1404    0.3056  -14.1493    0.3159
  7.300  -14.0959    0.2763  -14.1308    0.2965  -14.0926    0.2890  -14.1047    0.2659  -14.0777    0.3032  -14.0865    0.3133
  7.310  -14.0334    0.2740  -14.0682    0.2941  -14.0302    0.2867  -14.0423    0.2636  -14.0154    0.3008  -14.0242    0.3108
  7.320  -13.9715    0.2718  -14.0061    0.2917  -13.9683    0.2844  -13.9804    0.2614  -13.9536    0.2984  -13.9623    0.3083
  7.330  -13.9099    0.2696  -13.9444    0.2894  -13.9068    0.2822  -13.9188    0.2592  -13.8922    0.2961  -13.9008    0.3058
  7.340  -13.8489    0.2674  -13.8831    0.2871  -13.8457    0.2800  -13.8578    0.2570  -13.8313    0.2938  -13.8398    0.3034
  7.350  -13.7882    0.2653  -13.8223    0.2848  -13.7851    0.2778  -13.7971    0.2548  -13.7708    0.2915  -13.7792    0.3010
  7.360  -13.7280    0.2632  -13.7620    0.2825  -13.7249    0.2756  -13.7369    0.2527  -13.7108    0.2893  -13.7191    0.2987
  7.370  -13.6682    0.2611  -13.7020    0.2803  -13.6652    0.2735  -13.6771    0.2506  -13.6511    0.2870  -13.6594    0.2964
  7.380  -13.6088    0.2590  -13.6425    0.2781  -13.6058    0.2714  -13.6177    0.2485  -13.5919    0.2849  -13.6001    0.2941
  7.390  -13.5498    0.2570  -13.5834    0.2759  -13.5469    0.2693  -13.5588    0.2465  -13.5331    0.2827  -13.5412    0.2918
  7.400  -13.4913    0.2550  -13.5247    0.2738  -13.4884    0.2672  -13.5002    0.2445  -13.4747    0.2806  -13.4827    0.2896
  7.410  -13.4331    0.2530  -13.4664    0.2717  -13.4303    0.2652  -13.4420    0.2425  -13.4167    0.2785  -13.4246    0.2874
  7.420  -13.3753    0.2511  -13.4086    0.2696  -13.3725    0.2632  -13.3843    0.2406  -13.3590    0.2764  -13.3669    0.2853
  7.430  -13.3180    0.2492  -13.3511    0.2676  -13.3152    0.2612  -13.3269    0.2386  -13.3018    0.2744  -13.3096    0.2831
  7.440  -13.2610    0.2473  -13.2940    0.2655  -13.2583    0.2593  -13.2700    0.2367  -13.2450    0.2724  -13.2527    0.2810
  7.450  -13.2044    0.2454  -13.2373    0.2635  -13.2017    0.2574  -13.2134    0.2348  -13.1886    0.2704  -13.1962    0.2789
  7.460  -13.1482    0.2436  -13.1810    0.2616  -13.1455    0.2555  -13.1572    0.2330  -13.1325    0.2684  -13.1401    0.2769
  7.470  -13.0924    0.2418  -13.1250    0.2596  -13.0897    0.2536  -13.1013    0.2311  -13.0768    0.2665  -13.0843    0.2749
  7.480  -13.0369    0.2400  -13.0695    0.2577  -13.0343    0.2518  -13.0459    0.2293  -13.0215    0.2646  -13.0289    0.2729
  7.490  -12.9818    0.2382  -13.0143    0.2558  -12.9792    0.2499  -12.9908    0.2276  -12.9665    0.2627  -12.9739    0.2709
  7.500  -12.9271    0.2365  -12.9595    0.2539  -12.9245    0.2481  -12.9360    0.2258  -12.9119    0.2608  -12.9192    0.2690
  7.510  -12.8727    0.2347  -12.9050    0.2521  -12.8702    0.2464  -12.8817    0.2240  -12.8577    0.2590  -12.8649    0.2670
  7.520  -12.8187    0.2330  -12.8509    0.2503  -12.8162    0.2446  -12.8276    0.2223  -12.8038    0.2572  -12.8110    0.2651
  7.530  -12.7650    0.2313  -12.7971    0.2485  -12.7625    0.2429  -12.7740    0.2206  -12.7503    0.2554  -12.7574    0.2633
  7.540  -12.7117    0.2297  -12.7437    0.2467  -12.7092    0.2412  -12.7207    0.2189  -12.6971    0.2536  -12.7041    0.2614
  7.550  -12.6587    0.2281  -12.6907    0.2449  -12.6563    0.2395  -12.6677    0.2173  -12.6442    0.2519  -12.6512    0.2596
  7.560  -12.6060    0.2264  -12.6380    0.2432  -12.6037    0.2378  -12.6150    0.2156  -12.5917    0.2502  -12.5986    0.2578
  7.570  -12.5537    0.2248  -12.5856    0.2415  -12.5514    0.2362  -12.5627    0.2140  -12.5396    0.2485  -12.5464    0.2560
  7.580  -12.5017    0.2233  -12.5335    0.2398  -12.4994    0.2345  -12.5107    0.2124  -12.4877    0.2468  -12.4945    0.2543
  7.590  -12.4501    0.2217  -12.4818    0.2381  -12.4478    0.2329  -12.4591    0.2108  -12.4362    0.2451  -12.4429    0.2526
  7.600  -12.3987    0.2202  -12.4304    0.2365  -12.3965    0.2313  -12.4078    0.2093  -12.3850    0.2435  -12.3917    0.2509
  7.610  -12.3477    0.2187  -12.3794    0.2348  -12.3455    0.2298  -12.3567    0.2077  -12.3341    0.2419  -12.3407    0.2492
  7.620  -12.2970    0.2172  -12.3286    0.2332  -12.2948    0.2282  -12.3060    0.2062  -12.2835    0.2403  -12.2901    0.2475
  7.630  -12.2466    0.2157  -12.2782    0.2316  -12.2445    0.2267  -12.2557    0.2047  -12.2333    0.2387  -12.2398    0.2459
  7.640  -12.1966    0.2142  -12.2281    0.2300  -12.1944    0.2252  -12.2056    0.2032  -12.1833    0.2372  -12.1898    0.2442
  7.650  -12.1468    0.2128  -12.1783    0.2285  -12.1447    0.2237  -12.1558    0.2017  -12.1337    0.2356  -12.1401    0.2426
  7.660  -12.0973    0.2114  -12.1288    0.2270  -12.0952    0.2222  -12.1064    0.2003  -12.0844    0.2341  -12.0907    0.2411
  7.670  -12.0481    0.2100  -12.0796    0.2254  -12.0461    0.2208  -12.0572    0.1988  -12.0353    0.2326  -12.0416    0.2395
  7.680  -11.9993    0.2086  -12.0307    0.2239  -11.9972    0.2193  -12.0083    0.1974  -11.9866    0.2312  -11.9928    0.2380
  7.690  -11.9507    0.2072  -11.9821    0.2225  -11.9487    0.2179  -11.9597    0.1960  -11.9381    0.2297  -11.9443    0.2364
  7.700  -11.9024    0.2059  -11.9338    0.2210  -11.9004    0.2165  -11.9115    0.1946  -11.8899    0.2283  -11.8961    0.2349
  7.710  -11.8544    0.2045  -11.8858    0.2196  -11.8524    0.2151  -11.8634    0.1933  -11.8421    0.2268  -11.8481    0.2335
  7.720  -11.8066    0.2032  -11.8380    0.2181  -11.8047    0.2137  -11.8157    0.1919  -11.7945    0.2254  -11.8005    0.2320
  7.730  -11.7592    0.2019  -11.7906    0.2167  -11.7573    0.2124  -11.7683    0.1906  -11.7471    0.2240  -11.7531    0.2306
  7.740  -11.7120    0.2006  -11.7434    0.2153  -11.7101    0.2111  -11.7211    0.1892  -11.7001    0.2227  -11.7060    0.2291
  7.750  -11.6651    0.1993  -11.6965    0.2140  -11.6632    0.2097  -11.6742    0.1879  -11.6533    0.2213  -11.6592    0.2277
  7.760  -11.6185    0.1981  -11.6499    0.2126  -11.6166    0.2084  -11.6276    0.1866  -11.6068    0.2200  -11.6127    0.2263
  7.770  -11.5721    0.1969  -11.6036    0.2113  -11.5703    0.2071  -11.5813    0.1853  -11.5606    0.2187  -11.5664    0.2250
  7.780  -11.5260    0.1956  -11.5575    0.2099  -11.5242    0.2059  -11.5352    0.1841  -11.5146    0.2174  -11.5204    0.2236
  7.790  -11.4802    0.1944  -11.5117    0.2086  -11.4784    0.2046  -11.4893    0.1828  -11.4689    0.2161  -11.4746    0.2223
  7.800  -11.4346    0.1932  -11.4661    0.2073  -11.4328    0.2034  -11.4438    0.1816  -11.4235    0.2148  -11.4291    0.2209
  7.810  -11.3893    0.1921  -11.4208    0.2060  -11.3875    0.2021  -11.3985    0.1803  -11.3783    0.2136  -11.3839    0.2196
  7.820  -11.3442    0.1909  -11.3758    0.2048  -11.3425    0.2009  -11.3534    0.1791  -11.3333    0.2123  -11.3389    0.2183
  7.830  -11.2994    0.1897  -11.3310    0.2035  -11.2977    0.1997  -11.3086    0.1779  -11.2886    0.2111  -11.2941    0.2171
  7.840  -11.2548    0.1886  -11.2865    0.2023  -11.2531    0.1985  -11.2640    0.1767  -11.2442    0.2099  -11.2497    0.2158
  7.850  -11.2105    0.1875  -11.2422    0.2011  -11.2088    0.1974  -11.2197    0.1755  -11.2000    0.2087  -11.2054    0.2146
  7.860  -11.1664    0.1864  -11.1982    0.1998  -11.1647    0.1962  -11.1756    0.1744  -11.1560    0.2076  -11.1614    0.2134
  7.870  -11.1226    0.1853  -11.1544    0.1987  -11.1209    0.1951  -11.1318    0.1732  -11.1123    0.2064  -11.1177    0.2121
  7.880  -11.0790    0.1842  -11.1108    0.1975  -11.0773    0.1939  -11.0882    0.1721  -11.0688    0.2053  -11.0741    0.2110
  7.890  -11.0356    0.1832  -11.0675    0.1963  -11.0339    0.1928  -11.0448    0.1709  -11.0256    0.2041  -11.0308    0.2098
  7.900  -10.9924    0.1821  -11.0244    0.1952  -10.9908    0.1917  -11.0017    0.1698  -10.9826    0.2030  -10.9878    0.2086
  7.910  -10.9495    0.1811  -10.9816    0.1940  -10.9479    0.1906  -10.9588    0.1687  -10.9398    0.2019  -10.9450    0.2075
  7.920  -10.9068    0.1800  -10.9390    0.1929  -10.9052    0.1896  -10.9161    0.1676  -10.8972    0.2008  -10.9024    0.2063
  7.930  -10.8644    0.1790  -10.8966    0.1918  -10.8628    0.1885  -10.8737    0.1665  -10.8549    0.1998  -10.8600    0.2052
  7.940  -10.8221    0.1780  -10.8544    0.1907  -10.8206    0.1874  -10.8315    0.1655  -10.8128    0.1987  -10.8178    0.2041
  7.950  -10.7801    0.1770  -10.8125    0.1896  -10.7785    0.1864  -10.7894    0.1644  -10.7709    0.1977  -10.7759    0.2030
  7.960  -10.7383    0.1761  -10.7708    0.1885  -10.7367    0.1854  -10.7477    0.1634  -10.7292    0.1967  -10.7342    0.2020
  7.970  -10.6967    0.1751  -10.7293    0.1875  -10.6952    0.1844  -10.7061    0.1623  -10.6877    0.1956  -10.6927    0.2009
  7.980  -10.6553    0.1742  -10.6880    0.1864  -10.6538    0.1834  -10.6647    0.1613  -10.6465    0.1947  -10.6514    0.1999
  7.990  -10.6141    0.1732  -10.6470    0.1854  -10.6126    0.1824  -10.6235    0.1603  -10.6054    0.1937  -10.6103    0.1989
  8.000  -10.5731    0.1723  -10.6061    0.1844  -10.5717    0.1814  -10.5826    0.1593  -10.5646    0.1927  -10.5694    0.1978
  8.010  -10.5324    0.1714  -10.5655    0.1833  -10.5309    0.1805  -10.5418    0.1583  -10.5239    0.1917  -10.5288    0.1968
  8.020  -10.4918    0.1705  -10.5250    0.1824  -10.4904    0.1795  -10.5013    0.1573  -10.4835    0.1908  -10.4883    0.1959
  8.030  -10.4514    0.1696  -10.4848    0.1814  -10.4500    0.1786  -10.4610    0.1563  -10.4433    0.1899  -10.4480    0.1949
  8.040  -10.4113    0.1688  -10.4448    0.1804  -10.4099    0.1777  -10.4208    0.1553  -10.4032    0.1890  -10.4080    0.1939
  8.050  -10.3713    0.1679  -10.4049    0.1794  -10.3699    0.1768  -10.3809    0.1544  -10.3634    0.1881  -10.3681    0.1930
  8.060  -10.3315    0.1670  -10.3653    0.1785  -10.3301    0.1759  -10.3411    0.1534  -10.3237    0.1872  -10.3284    0.1921
  8.070  -10.2919    0.1662  -10.3259    0.1775  -10.2905    0.1750  -10.3015    0.1525  -10.2843    0.1863  -10.2889    0.1912
  8.080  -10.2525    0.1654  -10.2866    0.1766  -10.2511    0.1741  -10.2622    0.1515  -10.2450    0.1854  -10.2496    0.1903
  8.090  -10.2133    0.1646  -10.2476    0.1757  -10.2119    0.1732  -10.2230    0.1506  -10.2059    0.1846  -10.2105    0.1894
  8.100  -10.1742    0.1638  -10.2087    0.1748  -10.1729    0.1724  -10.1840    0.1497  -10.1670    0.1838  -10.1716    0.1885
  8.110  -10.1354    0.1630  -10.1700    0.1739  -10.1341    0.1715  -10.1451    0.1488  -10.1283    0.1829  -10.1328    0.1876
  8.120  -10.0967    0.1622  -10.1316    0.1730  -10.0954    0.1707  -10.1065    0.1479  -10.0898    0.1821  -10.0943    0.1868
  8.130  -10.0582    0.1615  -10.0932    0.1722  -10.0569    0.1699  -10.0680    0.1470  -10.0514    0.1813  -10.0559    0.1860
  8.140  -10.0199    0.1607  -10.0551    0.1713  -10.0186    0.1691  -10.0297    0.1461  -10.0132    0.1806  -10.0176    0.1852
  8.150   -9.9817    0.1600  -10.0172    0.1705   -9.9804    0.1683   -9.9916    0.1453   -9.9752    0.1798   -9.9796    0.1844
  8.160   -9.9437    0.1592   -9.9794    0.1696   -9.9424    0.1675   -9.9536    0.1444   -9.9374    0.1790   -9.9417    0.1836
  8.170   -9.9059    0.1585   -9.9418    0.1688   -9.9046    0.1667   -9.9158    0.1435   -9.8997    0.1783   -9.9040    0.1828
  8.180   -9.8682    0.1578   -9.9044    0.1680   -9.8670    0.1660   -9.8782    0.1427   -9.8622    0.1776   -9.8665    0.1820
  8.190   -9.8307    0.1571   -9.8671    0.1672   -9.8295    0.1652   -9.8408    0.1418   -9.8249    0.1769   -9.8291    0.1813
  8.200   -9.7934    0.1564   -9.8300    0.1664   -9.7922    0.1645   -9.8035    0.1410   -9.7877    0.1762   -9.7919    0.1806
  8.210   -9.7562    0.1558   -9.7931    0.1656   -9.7550    0.1638   -9.7663    0.1402   -9.7506    0.1755   -9.7549    0.1798
  8.220   -9.7192    0.1551   -9.7564    0.1649   -9.7180    0.1631   -9.7293    0.1394   -9.7138    0.1748   -9.7180    0.1791
  8.230   -9.6823    0.1545   -9.7198    0.1641   -9.6811    0.1624   -9.6925    0.1386   -9.6771    0.1742   -9.6812    0.1785
  8.240   -9.6456    0.1538   -9.6833    0.1633   -9.6444    0.1617   -9.6558    0.1378   -9.6405    0.1735   -9.6446    0.1778
  8.250   -9.6090    0.1532   -9.6471    0.1626   -9.6078    0.1610   -9.6193    0.1370   -9.6041    0.1729   -9.6082    0.1771
  8.260   -9.5726    0.1526   -9.6109    0.1619   -9.5714    0.1604   -9.5829    0.1362   -9.5678    0.1723   -9.5719    0.1765
  8.270   -9.5363    0.1520   -9.5750    0.1612   -9.5351    0.1597   -9.5467    0.1354   -9.5317    0.1717   -9.5358    0.1759
  8.280   -9.5001    0.1514   -9.5391    0.1605   -9.4990    0.1591   -9.5106    0.1347   -9.4957    0.1711   -9.4998    0.1752
  8.290   -9.4641    0.1509   -9.5035    0.1598   -9.4630    0.1584   -9.4746    0.1339   -9.4599    0.1705   -9.4639    0.1746
  8.300   -9.4283    0.1503   -9.4680    0.1591   -9.4271    0.1578   -9.4388    0.1331   -9.4242    0.1700   -9.4282    0.1741
  8.310   -9.3925    0.1498   -9.4326    0.1584   -9.3914    0.1572   -9.4031    0.1324   -9.3887    0.1695   -9.3926    0.1735
  8.320   -9.3569    0.1492   -9.3973    0.1578   -9.3558    0.1566   -9.3676    0.1316   -9.3532    0.1689   -9.3572    0.1729
  8.330   -9.3214    0.1487   -9.3622    0.1571   -9.3203    0.1561   -9.3322    0.1309   -9.3179    0.1684   -9.3218    0.1724
  8.340   -9.2861    0.1482   -9.3273    0.1565   -9.2850    0.1555   -9.2969    0.1302   -9.2828    0.1679   -9.2866    0.1719
  8.350   -9.2509    0.1477   -9.2925    0.1559   -9.2497    0.1549   -9.2617    0.1295   -9.2477    0.1675   -9.2516    0.1714
  8.360   -9.2158    0.1472   -9.2578    0.1553   -9.2146    0.1544   -9.2267    0.1288   -9.2128    0.1670   -9.2167    0.1709
  8.370   -9.1808    0.1468   -9.2232    0.1547   -9.1796    0.1539   -9.1918    0.1280   -9.1780    0.1666   -9.1818    0.1704
  8.380   -9.1459    0.1463   -9.1888    0.1541   -9.1448    0.1534   -9.1569    0.1273   -9.1434    0.1661   -9.1471    0.1700
  8.390   -9.1111    0.1459   -9.1545    0.1535   -9.1100    0.1529   -9.1223    0.1267   -9.1088    0.1657   -9.1126    0.1695
  8.400   -9.0765    0.1455   -9.1203    0.1529   -9.0754    0.1524   -9.0877    0.1260   -9.0744    0.1653   -9.0781    0.1691
  8.410   -9.0419    0.1451   -9.0863    0.1524   -9.0408    0.1519   -9.0532    0.1253   -9.0400    0.1650   -9.0437    0.1687
  8.420   -9.0075    0.1447   -9.0524    0.1518   -9.0064    0.1515   -9.0189    0.1246   -9.0058    0.1646   -9.0095    0.1683
  8.430   -8.9732    0.1443   -9.0185    0.1513   -8.9721    0.1510   -8.9846    0.1239   -8.9717    0.1643   -8.9754    0.1680
  8.440   -8.9389    0.1440   -8.9849    0.1508   -8.9378    0.1506   -8.9504    0.1233   -8.9377    0.1639   -8.9413    0.1676
  8.450   -8.9048    0.1436   -8.9513    0.1503   -8.9037    0.1502   -8.9164    0.1226   -8.9038    0.1636   -8.9074    0.1673
  8.460   -8.8708    0.1433   -8.9178    0.1498   -8.8696    0.1498   -8.8824    0.1220   -8.8700    0.1634   -8.8736    0.1670
  8.470   -8.8368    0.1430   -8.8844    0.1493   -8.8357    0.1494   -8.8486    0.1213   -8.8362    0.1631   -8.8398    0.1667
  8.480   -8.8029    0.1427   -8.8512    0.1489   -8.8018    0.1490   -8.8148    0.1207   -8.8026    0.1629   -8.8062    0.1664
  8.490   -8.7691    0.1424   -8.8180    0.1484   -8.7680    0.1487   -8.7811    0.1201   -8.7691    0.1626   -8.7726    0.1662
  8.500   -8.7354    0.1421   -8.7850    0.1480   -8.7343    0.1483   -8.7475    0.1194   -8.7356    0.1624   -8.7392    0.1660
  8.510   -8.7018    0.1419   -8.7521    0.1475   -8.7007    0.1480   -8.7139    0.1188   -8.7023    0.1623   -8.7058    0.1658
  8.520   -8.6682    0.1417   -8.7192    0.1471   -8.6671    0.1477   -8.6805    0.1182   -8.6690    0.1621   -8.6725    0.1656
  8.530   -8.6348    0.1415   -8.6864    0.1467   -8.6336    0.1474   -8.6471    0.1176   -8.6358    0.1620   -8.6392    0.1654
  8.540   -8.6013    0.1413   -8.6538    0.1464   -8.6002    0.1472   -8.6138    0.1170   -8.6026    0.1619   -8.6061    0.1653
  8.550   -8.5680    0.1411   -8.6212    0.1460   -8.5668    0.1469   -8.5806    0.1164   -8.5696    0.1618   -8.5730    0.1652
  8.560   -8.5347    0.1410   -8.5887    0.1456   -8.5335    0.1467   -8.5474    0.1158   -8.5366    0.1618   -8.5400    0.1651
  8.570   -8.5014    0.1409   -8.5563    0.1453   -8.5003    0.1465   -8.5143    0.1153   -8.5036    0.1617   -8.5070    0.1651
  8.580   -8.4682    0.1408   -8.5240    0.1450   -8.4671    0.1463   -8.4812    0.1147   -8.4707    0.1617   -8.4741    0.1651
  8.590   -8.4351    0.1407   -8.4917    0.1447   -8.4339    0.1461   -8.4482    0.1141   -8.4379    0.1618   -8.4413    0.1651
  8.600   -8.4020    0.1407   -8.4595    0.1444   -8.4008    0.1460   -8.4152    0.1136   -8.4052    0.1618   -8.4085    0.1651
  8.610   -8.3689    0.1407   -8.4274    0.1441   -8.3677    0.1459   -8.3822    0.1130   -8.3724    0.1619   -8.3758    0.1652
  8.620   -8.3359    0.1407   -8.3954    0.1438   -8.3346    0.1458   -8.3494    0.1125   -8.3397    0.1620   -8.3431    0.1653
  8.630   -8.3029    0.1407   -8.3634    0.1436   -8.3016    0.1457   -8.3165    0.1119   -8.3071    0.1622   -8.3104    0.1654
  8.640   -8.2699    0.1408   -8.3315    0.1434   -8.2686    0.1457   -8.2836    0.1114   -8.2745    0.1624   -8.2778    0.1656
  8.650   -8.2369    0.1409   -8.2996    0.1432   -8.2356    0.1456   -8.2508    0.1109   -8.2419    0.1626   -8.2452    0.1658
  8.660   -8.2040    0.1410   -8.2678    0.1430   -8.2027    0.1456   -8.2180    0.1103   -8.2094    0.1629   -8.2126    0.1660
  8.670   -8.1710    0.1411   -8.2361    0.1428   -8.1697    0.1457   -8.1852    0.1098   -8.1768    0.1632   -8.1800    0.1663
  8.680   -8.1381    0.1413   -8.2044    0.1427   -8.1367    0.1457   -8.1525    0.1093   -8.1443    0.1635   -8.1475    0.1666
  8.690   -8.1051    0.1416   -8.1727    0.1426   -8.1037    0.1458   -8.1197    0.1088   -8.1118    0.1639   -8.1150    0.1670
  8.700   -8.0721    0.1418   -8.1411    0.1425   -8.0707    0.1460   -8.0869    0.1083   -8.0793    0.1643   -8.0824    0.1674
  8.710   -8.0392    0.1421   -8.1095    0.1424   -8.0377    0.1461   -8.0541    0.1078   -8.0468    0.1648   -8.0499    0.1679
  8.720   -8.0062    0.1425   -8.0779    0.1423   -8.0047    0.1463   -8.0213    0.1073   -8.0142    0.1653   -8.0174    0.1684
  8.730   -7.9731    0.1428   -8.0464    0.1423   -7.9716    0.1465   -7.9884    0.1069   -7.9817    0.1659   -7.9848    0.1689
  8.740   -7.9400    0.1433   -8.0149    0.1423   -7.9385    0.1468   -7.9555    0.1064   -7.9491    0.1665   -7.9523    0.1695
  8.750   -7.9069    0.1437   -7.9834    0.1423   -7.9053    0.1471   -7.9226    0.1060   -7.9166    0.1672   -7.9197    0.1702
  8.760   -7.8737    0.1443   -7.9519    0.1424   -7.8721    0.1475   -7.8896    0.1055   -7.8839    0.1680   -7.8870    0.1709
  8.770   -7.8405    0.1448   -7.9204    0.1424   -7.8388    0.1478   -7.8566    0.1051   -7.8513    0.1688   -7.8543    0.1717
  8.780   -7.8071    0.1455   -7.8889    0.1426   -7.8054    0.1483   -7.8235    0.1046   -7.8186    0.1696   -7.8216    0.1726
  8.790   -7.7737    0.1462   -7.8574    0.1427   -7.7719    0.1488   -7.7903    0.1042   -7.7858    0.1706   -7.7888    0.1735
  8.800   -7.7402    0.1469   -7.8259    0.1429   -7.7384    0.1493   -7.7570    0.1038   -7.7529    0.1716   -7.7560    0.1745
  8.810   -7.7066    0.1477   -7.7944    0.1431   -7.7047    0.1499   -7.7237    0.1034   -7.7200    0.1727   -7.7230    0.1755
  8.820   -7.6729    0.1486   -7.7629    0.1433   -7.6709    0.1506   -7.6902    0.1030   -7.6870    0.1738   -7.6900    0.1767
  8.830   -7.6390    0.1496   -7.7313    0.1436   -7.6370    0.1513   -7.6566    0.1026   -7.6539    0.1751   -7.6569    0.1779
  8.840   -7.6050    0.1506   -7.6997    0.1439   -7.6029    0.1521   -7.6229    0.1022   -7.6207    0.1765   -7.6237    0.1793
  8.850   -7.5709    0.1517   -7.6681    0.1442   -7.5686    0.1529   -7.5890    0.1019   -7.5874    0.1779   -7.5903    0.1807
  8.860   -7.5366    0.1529   -7.6364    0.1446   -7.5342    0.1538   -7.5549    0.1015   -7.5539    0.1795   -7.5568    0.1822
  8.870   -7.5021    0.1542   -7.6046    0.1451   -7.4996    0.1548   -7.5207    0.1012   -7.5203    0.1811   -7.5232    0.1839
  8.880   -7.4674    0.1557   -7.5728    0.1456   -7.4648    0.1559   -7.4863    0.1009   -7.4865    0.1829   -7.4894    0.1856
  8.890   -7.4324    0.1572   -7.5409    0.1461   -7.4297    0.1571   -7.4517    0.1005   -7.4526    0.1848   -7.4555    0.1875
  8.900   -7.3973    0.1588   -7.5089    0.1467   -7.3944    0.1583   -7.4168    0.1002   -7.4184    0.1868   -7.4214    0.1896
  8.910   -7.3619    0.1605   -7.4768    0.1473   -7.3588    0.1597   -7.3817    0.1000   -7.3841    0.1890   -7.3870    0.1917
  8.920   -7.3262    0.1624   -7.4446    0.1480   -7.3229    0.1612   -7.3463    0.0997   -7.3496    0.1914   -7.3524    0.1940
  8.930   -7.2902    0.1645   -7.4123    0.1488   -7.2868    0.1628   -7.3106    0.0994   -7.3148    0.1939   -7.3176    0.1965
  8.940   -7.2538    0.1666   -7.3799    0.1496   -7.2502    0.1645   -7.2746    0.0992   -7.2797    0.1965   -7.2826    0.1992
  8.950   -7.2172    0.1690   -7.3473    0.1505   -7.2133    0.1663   -7.2383    0.0990   -7.2444    0.1994   -7.2472    0.2020
  8.960   -7.1801    0.1715   -7.3146    0.1515   -7.1760    0.1683   -7.2015    0.0988   -7.2087    0.2025   -7.2116    0.2051
  8.970   -7.1427    0.1742   -7.2817    0.1525   -7.1383    0.1705   -7.1644    0.0987   -7.1728    0.2058   -7.1756    0.2084
  8.980   -7.1048    0.1772   -7.2486    0.1536   -7.1001    0.1728   -7.1268    0.0985   -7.1365    0.2093   -7.1393    0.2119
  8.990   -7.0664    0.1804   -7.2153    0.1548   -7.0614    0.1753   -7.0888    0.0984   -7.0998    0.2131   -7.1026    0.2157
  9.000   -7.0275    0.1838   -7.1818    0.1561   -7.0221    0.1780   -7.0502    0.0984   -7.0626    0.2172   -7.0654    0.2198
  9.010   -6.9881    0.1875   -7.1481    0.1576   -6.9823    0.1810   -7.0110    0.0983   -7.0251    0.2216   -7.0279    0.2241
  9.020   -6.9480    0.1915   -7.1142    0.1591   -6.9418    0.1841   -6.9713    0.0983   -6.9871    0.2263   -6.9898    0.2288
  9.030   -6.9073    0.1958   -7.0799    0.1607   -6.9006    0.1876   -6.9309    0.0984   -6.9485    0.2314   -6.9513    0.2339
  9.040   -6.8659    0.2005   -7.0454    0.1625   -6.8586    0.1913   -6.8897    0.0985   -6.9094    0.2369   -6.9122    0.2394
  9.050   -6.8238    0.2056   -7.0106    0.1643   -6.8158    0.1953   -6.8478    0.0986   -6.8697    0.2428   -6.8725    0.2453
  9.060   -6.7808    0.2111   -6.9754    0.1664   -6.7722    0.1997   -6.8050    0.0988   -6.8294    0.2492   -6.8321    0.2517
  9.070   -6.7370    0.2171   -6.9399    0.1685   -6.7275    0.2044   -6.7613    0.0991   -6.7883    0.2562   -6.7911    0.2586
  9.080   -6.6922    0.2237   -6.9040    0.1709   -6.6818    0.2096   -6.7165    0.0994   -6.7466    0.2637   -6.7493    0.2662
  9.090   -6.6464    0.2308   -6.8676    0.1734   -6.6349    0.2152   -6.6706    0.0998   -6.7039    0.2719   -6.7067    0.2743
  9.100   -6.5994    0.2386   -6.8308    0.1761   -6.5868    0.2214   -6.6235    0.1004   -6.6605    0.2808   -6.6632    0.2832
  9.110   -6.5512    0.2472   -6.7935    0.1790   -6.5372    0.2281   -6.5751    0.1010   -6.6160    0.2905   -6.6187    0.2929
  9.120   -6.5017    0.2566   -6.7557    0.1822   -6.4862    0.2355   -6.5252    0.1018   -6.5706    0.3010   -6.5733    0.3034
  9.130   -6.4507    0.2669   -6.7174    0.1856   -6.4335    0.2436   -6.4736    0.1027   -6.5240    0.3126   -6.5267    0.3150
  9.140   -6.3981    0.2783   -6.6784    0.1892   -6.3789    0.2526   -6.4202    0.1037   -6.4763    0.3253   -6.4789    0.3277
  9.150   -6.3439    0.2909   -6.6388    0.1932   -6.3223    0.2625   -6.3648    0.1050   -6.4272    0.3393   -6.4299    0.3416
  9.160   -6.2877    0.3048   -6.5984    0.1974   -6.2634    0.2734   -6.3072    0.1065   -6.3767    0.3546   -6.3794    0.3570
  9.170   -6.2295    0.3203   -6.5574    0.2020   -6.2020    0.2856   -6.2471    0.1083   -6.3248    0.3716   -6.3274    0.3740
  9.180   -6.1690    0.3376   -6.5155    0.2070   -6.1378    0.2991   -6.1842    0.1104   -6.2711    0.3904   -6.2738    0.3928
  9.190   -6.1061    0.3569   -6.4727    0.2124   -6.0705    0.3143   -6.1182    0.1129   -6.2157    0.4114   -6.2184    0.4137
  9.200   -6.0405    0.3786   -6.4290    0.2182   -5.9997    0.3313   -6.0486    0.1158   -6.1584    0.4347   -6.1610    0.4370
  9.210   -5.9719    0.4030   -6.3843    0.2245   -5.9249    0.3505   -5.9750    0.1193   -6.0990    0.4607   -6.1016    0.4630
  9.220   -5.9001    0.4306   -6.3385    0.2313   -5.8457    0.3723   -5.8969    0.1234   -6.0374    0.4900   -6.0400    0.4923
  9.230   -5.8247    0.4618   -6.2914    0.2387   -5.7614    0.3971   -5.8135    0.1283   -5.9734    0.5230   -5.9760    0.5253
  9.240   -5.7455    0.4974   -6.2430    0.2466   -5.6714    0.4255   -5.7240    0.1342   -5.9068    0.5603   -5.9094    0.5626
  9.250   -5.6620    0.5381   -6.1932    0.2553   -5.5747    0.4583   -5.6275    0.1415   -5.8376    0.6027   -5.8402    0.6050
  9.260   -5.5740    0.5850   -6.1419    0.2647   -5.4704    0.4963   -5.5227    0.1503   -5.7657    0.6511   -5.7682    0.6534
  9.270   -5.4810    0.6391   -6.0888    0.2749   -5.3573    0.5409   -5.4083    0.1614   -5.6909    0.7066   -5.6934    0.7089
  9.280   -5.3828    0.7018   -6.0340    0.2859   -5.2340    0.5934   -5.2825    0.1752   -5.6134    0.7705   -5.6159    0.7728
  9.290   -5.2790    0.7750   -5.9772    0.2979   -5.0985    0.6560   -5.1429    0.1927   -5.5333    0.8445   -5.5358    0.8468
  9.300   -5.1695    0.8608   -5.9182    0.3107   -4.9489    0.7314   -4.9867    0.2152   -5.4511    0.9306   -5.4536    0.9329
  9.310   -5.0543    0.9617   -5.8569    0.3245   -4.7824    0.8234   -4.8101    0.2445   -5.3677    1.0312   -5.3701    1.0335
  9.320   -4.9337    1.0810   -5.7930    0.3391   -4.5958    0.9373   -4.6083    0.2834   -5.2843    1.1492   -5.2866    1.1516
  9.330   -4.8084    1.2225   -5.7262    0.3544   -4.3852    1.0804   -4.3749    0.3361   -5.2031    1.2882   -5.2054    1.2906
  9.340   -4.6799    1.3908   -5.6562    0.3698   -4.1459    1.2639   -4.1013    0.4093   -5.1276    1.4523   -5.1299    1.4548
  9.350   -4.5502    1.5914   -5.5824    0.3848   -3.8728    1.5041   -3.7761    0.5135   -5.0630    1.6461   -5.0652    1.6487
  9.360   -4.4222    1.8310   -5.5038    0.3980   -3.5611    1.8268   -3.3837    0.6668   -5.0170    1.8748   -5.0190    1.8776
  9.370   -4.2994    2.1180   -5.4187    0.4072   -3.2096    2.2726   -2.9043    0.9005   -5.0011    2.1434   -5.0030    2.1465
  9.380   -4.1862    2.4650   -5.3233    0.4086   -2.8286    2.9082   -2.3149    1.2715   -5.0324    2.4565   -5.0342    2.4600
  9.390   -4.0891    2.8950   -5.2095    0.3968   -2.4647    3.8422   -1.6008    1.8864   -5.1376    2.8165   -5.1394    2.8208
  9.400   -4.0285    3.4538   -5.0583    0.3653   -2.2674    5.2376   -0.8011    2.9427   -5.3613    3.2176   -5.3633    3.2230
  9.410   -4.0859    4.2206   -4.8287    0.3189   -2.6519    7.2464   -0.1658    4.7552   -5.7795    3.6205   -5.7825    3.6274
  9.420   -4.5156    5.2284   -4.4573    0.3172   -4.4775    9.5684   -0.5020    7.5004   -6.4767    3.8719   -6.4823    3.8801
  9.430   -5.6761    6.1020   -3.9622    0.5261   -8.2140   10.5265   -2.9699   10.1075   -7.3247    3.6609   -7.3342    3.6682
  9.440   -7.2305    6.1037   -3.5817    1.0128  -11.7321    8.5668   -6.6657   10.3688   -7.8159    2.9819   -7.8277    2.9854
  9.450   -8.3139    5.3758   -3.4417    1.5585  -12.8914    5.4924   -9.0879    8.6621   -7.7988    2.3443   -7.8101    2.3444
  9.460   -8.8164    4.5556   -3.4174    2.0389  -12.4818    3.1934   -9.9572    6.8200   -7.5790    1.9709   -7.5886    1.9688
  9.470   -9.0034    3.8835   -3.4209    2.4927  -11.6241    1.8163  -10.0783    5.4835   -7.3395    1.7905   -7.3477    1.7874
  9.480   -9.0508    3.3645   -3.4478    2.9759  -10.7620    1.0361   -9.9580    4.6041   -7.1234    1.7303   -7.1303    1.7266
  9.490   -9.0404    2.9619   -3.5323    3.5220  -10.0029    0.6091   -9.8047    4.0323   -6.9400    1.7592   -6.9458    1.7551
  9.500   -9.0108    2.6422   -3.7301    4.1377   -9.3567    0.4030   -9.6998    3.6483   -6.8027    1.8656   -6.8075    1.8611
  9.510   -8.9816    2.3772   -4.1084    4.7938   -8.8178    0.3497   -9.6707    3.3601   -6.7360    2.0373   -6.7397    2.0326
  9.520   -8.9600    2.1422   -4.7259    5.4099   -8.3885    0.4094   -9.7141    3.0950   -6.7693    2.2471   -6.7719    2.2423
  9.530   -8.9422    1.9164   -5.5892    5.8550   -8.0794    0.5450   -9.7999    2.7970   -6.9216    2.4446   -6.9231    2.4401
  9.540   -8.9148    1.6888   -6.6096    5.9940   -7.8964    0.7093   -9.8751    2.4397   -7.1780    2.5663   -7.1785    2.5622
  9.550   -8.8629    1.4619   -7.6143    5.7706   -7.8234    0.8520   -9.8861    2.0384   -7.4835    2.5664   -7.4832    2.5630
  9.560   -8.7803    1.2485   -8.4331    5.2519   -7.8217    0.9388   -9.8083    1.6381   -7.7673    2.4443   -7.7665    2.4417
  9.570   -8.6721    1.0611   -8.9839    4.5803   -7.8479    0.9637   -9.6533    1.2823   -7.9804    2.2389   -7.9793    2.2371
  9.580   -8.5494    0.9053   -9.2800    3.8896   -7.8712    0.9405   -9.4515    0.9929   -8.1093    1.9988   -8.1081    1.9977
  9.590   -8.4226    0.7797   -9.3834    3.2608   -7.8781    0.8887   -9.2327    0.7705   -8.1652    1.7602   -8.1640    1.7598
  9.600   -8.2986    0.6797   -9.3612    2.7252   -7.8662    0.8239   -9.0167    0.6048   -8.1675    1.5427   -8.1665    1.5428
  9.610   -8.1810    0.5999   -9.2658    2.2845   -7.8385    0.7563   -8.8140    0.4828   -8.1346    1.3531   -8.1338    1.3536
  9.620   -8.0712    0.5356   -9.1322    1.9277   -7.7991    0.6913   -8.6284    0.3930   -8.0802    1.1915   -8.0796    1.1923
  9.630   -7.9693    0.4832   -8.9822    1.6402   -7.7520    0.6316   -8.4607    0.3264   -8.0138    1.0552   -8.0134    1.0561
  9.640   -7.8749    0.4398   -8.8283    1.4081   -7.7001    0.5779   -8.3095    0.2764   -7.9415    0.9403   -7.9412    0.9414
  9.650   -7.7873    0.4034   -8.6775    1.2197   -7.6456    0.5301   -8.1733    0.2385   -7.8670    0.8433   -7.8669    0.8446
  9.660   -7.7058    0.3725   -8.5333    1.0658   -7.5901    0.4879   -8.0500    0.2093   -7.7926    0.7611   -7.7927    0.7625
  9.670   -7.6298    0.3460   -8.3973    0.9391   -7.5345    0.4506   -7.9381    0.1865   -7.7198    0.6911   -7.7199    0.6925
  9.680   -7.5586    0.3229   -8.2699    0.8339   -7.4795    0.4178   -7.8360    0.1685   -7.6491    0.6310   -7.6494    0.6324
  9.690   -7.4917    0.3028   -8.1511    0.7459   -7.4255    0.3887   -7.7422    0.1540   -7.5810    0.5791   -7.5814    0.5806
  9.700   -7.4285    0.2850   -8.0403    0.6716   -7.3729    0.3630   -7.6558    0.1423   -7.5156    0.5341   -7.5161    0.5356
  9.710   -7.3688    0.2692   -7.9371    0.6085   -7.3216    0.3401   -7.5757    0.1327   -7.4530    0.4948   -7.4535    0.4963
  9.720   -7.3121    0.2552   -7.8407    0.5545   -7.2719    0.3196   -7.5011    0.1247   -7.3929    0.4603   -7.3935    0.4618
  9.730   -7.2581    0.2425   -7.7507    0.5079   -7.2236    0.3014   -7.4314    0.1180   -7.3355    0.4298   -7.3361    0.4313
  9.740   -7.2066    0.2311   -7.6663    0.4676   -7.1769    0.2849   -7.3660    0.1124   -7.2804    0.4027   -7.2811    0.4043
  9.750   -7.1573    0.2208   -7.5870    0.4324   -7.1315    0.2701   -7.3044    0.1076   -7.2276    0.3786   -7.2283    0.3802
  9.760   -7.1100    0.2113   -7.5125    0.4016   -7.0876    0.2568   -7.2461    0.1034   -7.1768    0.3570   -7.1776    0.3586
  9.770   -7.0646    0.2027   -7.4421    0.3744   -7.0450    0.2446   -7.1908    0.0998   -7.1281    0.3376   -7.1289    0.3392
  9.780   -7.0208    0.1949   -7.3756    0.3503   -7.0036    0.2336   -7.1383    0.0966   -7.0811    0.3201   -7.0820    0.3216
  9.790   -6.9786    0.1876   -7.3125    0.3289   -6.9635    0.2235   -7.0881    0.0938   -7.0359    0.3042   -7.0368    0.3058
  9.800   -6.9379    0.1810   -7.2525    0.3098   -6.9245    0.2143   -7.0402    0.0914   -6.9922    0.2898   -6.9931    0.2914
  9.810   -6.8984    0.1748   -7.1955    0.2926   -6.8865    0.2058   -6.9942    0.0892   -6.9500    0.2766   -6.9510    0.2782
  9.820   -6.8602    0.1691   -7.1410    0.2772   -6.8496    0.1981   -6.9501    0.0872   -6.9092    0.2646   -6.9102    0.2662
  9.830   -6.8231    0.1638   -7.0890    0.2632   -6.8136    0.1909   -6.9076    0.0854   -6.8696    0.2536   -6.8706    0.2551
  9.840   -6.7871    0.1588   -7.0391    0.2506   -6.7785    0.1843   -6.8666    0.0838   -6.8312    0.2434   -6.8323    0.2450
  9.850   -6.7520    0.1542   -6.9912    0.2391   -6.7443    0.1782   -6.8271    0.0823   -6.7940    0.2341   -6.7950    0.2356
  9.860   -6.7179    0.1499   -6.9452    0.2286   -6.7109    0.1725   -6.7888    0.0809   -6.7578    0.2254   -6.7588    0.2270
  9.870   -6.6846    0.1459   -6.9009    0.2190   -6.6783    0.1672   -6.7517    0.0797   -6.7225    0.2174   -6.7236    0.2190
  9.880   -6.6521    0.1421   -6.8581    0.2102   -6.6464    0.1622   -6.7157    0.0785   -6.6882    0.2100   -6.6892    0.2115
  9.890   -6.6204    0.1385   -6.8168    0.2021   -6.6152    0.1576   -6.6807    0.0775   -6.6547    0.2031   -6.6558    0.2046
  9.900   -6.5893    0.1352   -6.7769    0.1946   -6.5846    0.1533   -6.6467    0.0765   -6.6220    0.1966   -6.6231    0.1982
  9.910   -6.5590    0.1320   -6.7382    0.1877   -6.5546    0.1493   -6.6135    0.0755   -6.5901    0.1906   -6.5912    0.1921
  9.920   -6.5292    0.1291   -6.7007    0.1813   -6.5252    0.1455   -6.5812    0.0746   -6.5589    0.1850   -6.5600    0.1865
  9.930   -6.5001    0.1262   -6.6643    0.1754   -6.4964    0.1419   -6.5497    0.0738   -6.5284    0.1797   -6.5295    0.1812
  9.940   -6.4715    0.1236   -6.6289    0.1699   -6.4681    0.1386   -6.5189    0.0730   -6.4985    0.1747   -6.4996    0.1763
  9.950   -6.4435    0.1211   -6.5944    0.1648   -6.4403    0.1354   -6.4888    0.0723   -6.4692    0.1701   -6.4703    0.1716
  9.960   -6.4159    0.1187   -6.5608    0.1600   -6.4130    0.1324   -6.4593    0.0716   -6.4405    0.1657   -6.4416    0.1672
  9.970   -6.3889    0.1164   -6.5281    0.1555   -6.3862    0.1296   -6.4304    0.0709   -6.4123    0.1616   -6.4134    0.1631
  9.980   -6.3623    0.1142   -6.4961    0.1513   -6.3598    0.1269   -6.4021    0.0703   -6.3846    0.1577   -6.3858    0.1592
  9.990   -6.3361    0.1121   -6.4649    0.1474   -6.3338    0.1244   -6.3743    0.0697   -6.3574    0.1540   -6.3586    0.1555
 10.000   -6.3103    0.1102   -6.4344    0.1437   -6.3082    0.1220   -6.3471    0.0691   -6.3307    0.1505   -6.3319    0.1520
